0011110101111111
0010110110100011
0010110111110011
0011101010011011
1011010101000100
0011000011010111
1011001000001000
1011101000001110
0011101001010100
0011100001011001
1011110011010101
0011001100001111
1011001100011101
1011010011001101
0011010101111011
0011110010010101
1011111101000101
0011000101001011
0010110011000100
1011100101100010
1011101011000110
1011100110001100
1011011000101001
1011110101000111
0011011010010010
1011001001111010
1100000000110100
1011110011110001
0011101010101011
0011000101110101
1011110111100001
1011000101101111
0011110010111101
0011010101000100
0011110101100100
0011001001011011
1011111100001000
0010101110101111
1011100101110001
1011101010111011
0011000100110000
1011110101000110
1010101100100010
0011100111000110
0010111001001000
0011110000000101
0011100101001010
0011011011100110
0011111111010101
0011101011000010
1011100010011001
1011101001110110
0011010101100001
0011110111001011
0011101000010111
1011111011100011
1011100011101011
1011110011101001
0011110101100001
0011100010101011
0011000010010110
1011100101110010
0011110100010101
1011100001100100
1011000111100100
0011110010011010
0011010010010010
1011110011101111
0001110111010101
0010010111000100
1011110100010010
1011011110110011
0011110000100101
0011101011000111
1011101100110111
1011101011001011
0011101100011100
0011111111111000
0011111001010101
1011101001000001
0010011101100100
1011101111000100
1011101101110100
1011111010101010
1011100111000111
0011000111101101
0011101101111101
0011111000100001
0011010101110101
1011010111101101
1011010111001011
0011001110100011
0011110111101111
1011010110110001
0011100000101011
1011011100111010
1011110111011101
0011010100011101
1011100000010001
0011101011000111
1011110010001000
1011110001110101
0011100100100000
0010000100111000
0010111110100011
0011010001000111
1011010010011111
1011100000000011
1011000100010110
1011110110101100
1011110010110110
1011101001101010
1011011010111111
0011011100011101
1011101010011100
1010100100111010
0011101111010111
1011111000101101
1011110000010110
0011101111011011
1011100110100011
1011011011100001
1011100100110111
1011110001110101
0011000001100101
1011101110001010
0011110010110110
1011110110110000
1011110000111111
0011011000100111
1011100011011011
1011011010110000
0011100011101010
0011100110101011
1011110100011001
0011011100001011
0011100110000011
1011110011010101
1011100001000110
1011110001110110
1011100110001010
0011010000011101
1011110111111000
1011110010011101
0100000000001010
1011011101101000
0011011001010111
0011101101100011
1011110100100011
1011011111111001
1011101001011110
0011110011010001
0011100111110010
0011100011101100
0011011110100011
1011110010010010
0011101101110000
0011100000111111
1011010101101000
1011010101100110
0011011000010101
1011110011110010
0011011011011101
1011111100100110
0011011111001001
1010100011100011
1011110010110001
1011100101100001
1010101001011110
1010100101010111
0011110100000111
0011110111101000
0010111111100111
0011110101011011
0011000001100011
1011010110010111
0011101111001100
1100000111000011
0011100010000010
1011011101000111
1011110010010011
0010101010000111
1011000100011001
0011010001011000
0011101111101101
0010101100001101
0011000100101100
1011110110010100
0011110101001111
1011110010000101
0010101010001100
1011110001001000
0011111001101110
1011011010111000
1011101010101111
0011100011011100
1100000001000111
0011000011111011
0011001000100111
1011101101110100
1011110000100000
1011010001000100
0011000100111101
1011110111011111
1011100011111101
1011100000110010
1011110000110101
0011100100001101
1011011000000011
1011101111001000
1011100111110000
0011110000101101
0011110000111110
0011100110000001
0011101110110110
0011011110011000
0011110111110100
1011110110001111
1011011010001100
1011100010111100
1011110000110001
1011010000000100
0011111000011010
0011110101010101
0011000001000010
0011101001011001
0100000001101010
0011110101010001
1011011100010111
1011110111111111
1011101100111011
0011101000110110
1011101011001011
0011101011010110
1100000101100001
0011110000001100
0011110100100010
1011100010000100
0011011000110111
1011100110001100
0011100000001100
0100000100000011
0011100000100011
1011010110111110
0011011001010001
1011100100000110
1100000001011000
0011110101011000
1011011111001111
1011011111010101
1011101110100000
0011101110011110
1011111001001100
0011100100000011
1010010001110011
1011000000000100
0011110011100010
1100000100111011
0011011000100110
0011011011110110
1011100101111010
0010110101101110
0011100010100110
1011100011100001
0011110101100010
0011100111001000
1011010110001111
1011001011001111
1010001101010101
1011100100101101
0011101101011111
0011101101011010
0010011010011011
1011110111101100
1100000110010101
0010101000110010
1011100101101100
1011111100111110
1011110010101010
0011001100111000
0011110011000100
0010101010100100
1010011001011010
1011101111011100
0011010111110100
0011011111010110
1011011100101000
0100000000101011
0011110000100110
1010100011011111
1100000011010100
0011101101111111
1011101010000001
1011101001110011
1011110101110101
0011100001101110
0011011100011101
0011100100000100
1011101010010000
0011110000111111
0011101111010100
1011100111001111
1011101111010010
0011101010001000
0011110110101111
0001111110110111
1011010110100001
1011110101010011
1011100100111010
0011000001001100
0010000001001111
1011100010100111
1011100001001111
0011100001011100
1011101110100000
1011000011100110
0011000001010111
0011110011011101
0011100011101000
0011100101100000
1010110111001010
1011101001101101
1011110001011110
1011010100101101
1010001011101011
1010110100100010
1011110010101011
1010101010001011
1011110101101011
0011010101110010
0011110100011101
1011110100111001
0011100101100111
1100001001101010
1010110001110100
0011111010011111
0011101100010011
0100000001011111
1011100011110000
1100000100101010
0011110000100000
1010101100011100
1011010110100111
0011010010100010
0011100011010000
1011001110101110
0011001101111110
1010111001100000
0011101001100011
0011110010011110
0100000001101011
1011111000011101
0011101001001101
0010100000000000
0011110101000100
0011110010011001
0011110001111010
0011010101011011
0011101111111101
1011110000011110
1011010001001000
0011110010110011
0100000010000100
1011011001111000
0011011111110101
1011110001100010
0011110011101010
0011011100100010
0011101011000101
0011100111111010
0011100010100000
0011101010010001
1011100101110011
0011111111101001
1100000100011101
0011010011110001
1011100100110000
1011101101000010
0011110000111000
0011101001100000
1011111000010110
0011101101111000
0011100111011010
1011110111011010
1011111100100111
0011110011111000
0011010000101100
1011110000000111
1010110010101100
1011000010011101
0011110010100001
0011110000110000
0011100111101011
0011111010011011
1011001011110100
0011010001100000
0011100001010101
0011000100101001
1011110001000011
0011111011101101
0010101110111000
0100000001100000
0011100101011100
1011000101100001
1100000000101101
0011101101101111
1011000000100110
1011101110110111
1011110000100011
0011010000010101
1011101101011101
1100000001110111
1011110010001100
0011110001100101
1011010111100101
0011101001111000
0011110000100011
0010100011111101
1010100100110100
0010110001100010
0011000011101000
1011101110000010
1011000011011100
0011111000111101
0011010111111010
0011100000011110
0010111101000011
1011000111111001
0011001101010010
1011101101011110
0100000101100011
1011110101111010
1011101000101101
0011111001000111
0011110001101100
0011010011100111
0011011010101001
1011100000110110
0011101101101001
1011011010100010
1011111011001110
1011110100100011
0011101011010011
0011100110001110
1011101001000010
0010101000001110
1011111001110111
1011110101001101
1100000101100010
0011010001100101
1011110101110110
1011100101111011
1011000110111100
0011011111010001
1011100010111100
0011111000101000
1011011010001000
0011110000001000
0011101000011100
1011101110001100
1100000000011010
1011010101001100
1011111101110011
0011100111010000
1011101100001110
0011100111110001
1011111101000110
1011100101000110
0011111101001011
1011101010001011
0010011000011111
1011111000011010
1011101011010011
1011010110100110
0011001111111111
1011101000011100
1011111111101001
0011100110011000
0011011101110001
1011011001100110
0011010100000110
1011110110110010
0011110111010001
1010010100000001
0011100010110100
1011010110101100
0011011010110000
1011001000001010
1011100011010011
0011111011110000
1010100010100000
0011011011110110
0011101110001001
1011010011000000
0011110111100110
0011110110101001
0011110000010000
1010101010100001
1011100011011100
0011110011100100
1011101111111101
0011110000111110
0011100000100110
1011100111001100
0011011111011111
0011100011111001
0011100100111000
0001011000110011
1011110000100111
1011010010000000
0011101101011010
0011000100101101
0011111101000011
0011110001011111
1011110011011111
0010111011011001
0011011001110010
1010100010010110
1011010100011011
0011010000011101
1011101111100001
0011101001110011
1011001001100010
1011101000001110
1010101110100000
0011101111011111
0011010010001001
0011000001010110
1011110101111101
1011100000100000
1011110101000110
0011110011101101
1011110010110001
1011010100110111
0011011010011010
1010101110010000
1011111000000011
0011100001111101
1011001010100111
1011100100101101
0010010010100011
1011111111011111
0011010001010101
1011101011100011
0011001101100010
0011101000010010
0010100000110111
1011010010101111
0011000110011001
0011100011001110
1011100100111010
1100000101110110
0011101101110111
1010100001011001
1011011110010010
0011111110110010
1100001000011011
1011110011101110
0011100011101011
0011000100000101
0011001110011110
1011110000100110
0010100100011111
1011010110010011
1010110111101101
1011100011010001
0011101011011010
0011011011001001
1011010001110010
0011100010101100
0011110001100000
1011110011110001
0011110101011000
1011111011101101
0011110011111010
0010101011010001
1011111001001110
0011011011010111
0010110001111001
0011110110110101
0011100111111110
0011000000110001
1011100000000110
1011110010001000
0010001001011111
1011110000010011
0011101001000100
0011100000110000
1011100000000001
1011100000110010
1010110001011111
1011110110000000
0011101010000100
0011010110010100
1011010110000001
1011101011010010
1011100001101001
1011101011111110
0011011100111000
0011101011111111
0011110010000110
1011101011010010
1011110010011011
1010111000100100
1011110101010010
0011110111001000
1011001110101001
0011110011000100
0100000001000100
0011110010001001
1011110001100001
1011110110001001
0011011000111011
0011011001100111
1011111000001110
0011110000110111
0011101011100101
0011010000011010
0011110011010001
0011111001001111
1011011100111011
0011101000110100
1011100110001111
0011101101110110
1011110000010010
1011010010101110
1011000011000110
1011111101100010
1011101011100100
0011010001111101
1011000111001011
0011110101000101
1011101000011110
0011000001000100
0011100111100101
0011110101001011
0010011010000110
1011100110100010
1011110100010100
1100000011110111
1011010110110110
0011101001100011
0011110100011010
0011110110101011
0011101010100111
1011110110001110
1011100000010101
1011100101100100
0011111100110111
1011100110011111
1010100011100000
1011010100000010
1011100010101110
0011101100011001
1011001111000100
1011110010110001
0011101101000001
0011111111001000
0011100011001100
1011101111010010
1011110100100101
0011110010000011
0011110101100111
0011101001011101
1011100111010101
1011110010000011
0011110011010010
1011011001010111
1011101010110001
0011110110101001
1011101000001110
1011001010001011
0011110011000000
1010010000111101
1011101000001011
0011110101010100
0011100000001111
0011110000011010
1011110100011000
0011100000010101
1011111001011101
0010101000110100
0011111000101100
1011011000001111
0011011001110000
1010101111100110
1011010101100101
1011010111111110
0100000111001111
1011101011100011
0011100001101010
1011110111101010
1011110001111111
1011110010001110
0100000010100101
0011001111001000
1011110000110001
0011010111011100
1011110000110110
0010110000001000
0011100101001001
0011100011110110
1011101011011111
0011101001011100
0011110011010010
1011011011110110
1011100011000111
1011100110001101
1011100001011010
0011100101111000
0011110010001000
0011110111100000
1010111011110000
0011100110110000
0011101000000011
1011100110000101
1010101011100010
1011010110110001
1011011111011111
1011100000101011
0011110010001110
1011100000000101
0011010000010111
1011101010000011
0011101011101111
1011010011001100
1011100101110000
1011110011101001
0011011101000000
0011000001001000
0011100011100011
0100000010001110
0011100000011100
1100000011101000
1011100100100000
1011110101101001
1011011011100100
0011001110101011
1011111000011010
0010110110001110
0010110110101001
0100000110001011
0011010001001011
0011110101100000
0011101000101011
0010110010110111
0011101000110001
1010101000011110
1011000110100010
0011110100111100
1011101101011010
0011010000111000
1011111001010011
0011101000010110
0011101001001110
0011010011111000
1011100110011110
0011101111001100
0010101100010110
0011111101010111
1011101110000001
0011111110011001
1010111100101010
0010000110110110
1011010010110111
0011110000100110
1100000001010100
0011000100010111
1011110010000010
0011000000000100
1011111101100100
0011110101001011
0011100011110111
0100000111101000
0011110001101011
0011101101001111
0011101100100110
1010101111010110
1011110010010100
0100000001100011
1011110001101010
0011101101000111
0100000101011011
1011101111110000
0011100000010010
1011100110000101
1011011100011000
1011001000100101
1011100010100010
1010111100011000
0011000111101110
1010110111110100
1011000010010011
1011011101110001
1011010001110100
0011010000101010
0011101101001000
0011100001001001
1010011001010100
0011010010100001
1011011011110011
0010110101000100
1011100111101101
0100000000111011
0011011010010010
1011100100101111
0100000001011000
0010111001110100
1010001000100101
1011101011101001
1011010111000110
0011111000010011
0011101110110001
1011000100110101
0011111001111001
0011010100111000
1010110111011110
0011100100000110
1011101010010000
1011011101110101
0011111010111000
0011010001011110
0011011101001101
1011010100001110
1011101110001001
1011110010111001
0011110001111111
0011010100000111
0011101111101111
0011110111101110
1011101100110111
0011010101110100
1011010100010110
0011010000111110
0011011011000111
1011011001001110
1010100001000011
1010111111011100
1011110100110011
0011010101110001
1011110111011100
0100000000010110
0011010110001110
0011000001010101
0011010111101100
0011111001110110
1011101000000101
0011001110010111
1010110001001110
0010100010010100
1011110101111000
1011100010000100
1011100100010000
1011101011100001
0011010010001001
0011101001111100
1011100111100111
0011110101011001
1011101000001001
0011110001001100
0011111001100010
1011010011111010
1011100000100001
0011111001111000
1011100100000011
1100001001011000
1011110011100001
1011111100100101
1011011100101110
0011001101100100
1011100010001001
1011110101110010
0010011010010011
0010111101010000
0011110000101010
0011110010101000
0010111111101100
0011111001100101
0011100000101100
1011111110010000
0011011010001011
0011101100100011
0011101010110001
0011110010101010
0011100001100010
0011010010110001
1011101101001111
0011101100111001
0010110001010010
0100000000110011
0010011111011010
0011110000100000
1011010110001000
1011100000110011
0011111010100010
1011100001001101
0011110001111111
0011010100011111
0011101011110001
0011000010000110
0011001100011111
1011100101110110
0010110100001010
0011110101011111
1011110001001011
1011010110000101
0011101111011000
0011101110111100
1011001110101001
0011100111100100
1011100111100110
0011111000101101
0011101000100110
0010110001101111
1011011011100111
0100000000001011
0011101000010000
0011010110011011
1011110110010111
1011011101100101
0011110100111100
1011110100010101
1010111100111000
0010001101111111
1100000000000100
1011110101100110
0011101010100110
0011011100010110
0011110010100110
0011001101011001
0100000001110011
0011101111110001
0011001011100110
1011100110000100
0011110001110111
0011000001101011
0100000100001101
0011010001010101
1011110000100101
1010011010111011
0011001000100010
1011111000011011
0011100011000000
0011101010101100
1011101011100000
1100000011000110
0011001100101101
1011110111101100
1011011000111001
0011111011100010
1011110001001111
1011110100100010
1011110000001101
0100000100101000
0011010100100010
0011011000011100
0011100001000000
1011110110010000
0001111100111011
0011100100110001
0011111010011000
0011111100110111
1011101011000001
1011011110110010
0011010001011000
0011110010011110
0011100110010011
0011010001101001
0011101000101011
0011111101111100
1011111000110101
1011100000101100
0011100110101011
1011011110001111
0011010010111101
1011101100001010
1011110010110111
0011010000100101
1100000001111101
1011110110101010
1011100011110101
1011100010110110
1011110100111000
1010111111111101
1011100001100110
1011001101000101
1011011110110010
0100000011010101
1011110000011111
1011110010010111
1011111100100011
1011100011101100
1011110000011011
0100000000001011
1011110010101001
0011010010011011
1011101001011010
0010110011100001
1011010010111010
0011101101100110
0011100101101101
1011011110110011
1011111100000101
1011000010101100
0011010001110011
0011100110111011
1011010001100100
0011100110100111
0011011000100101
1011101010110111
1011101100111110
0011001001100110
0011100110001011
0011100111010001
1011110100101101
1011110001011101
0011110011100110
1011110110001000
0010101111110111
0011100010001101
1011111101101111
0011111110010101
1011101101000010
1011100110101010
1011011101000111
1011110111111101
1011000011100101
1011100011110111
0011110000111001
0011110110110011
1011101110100110
0011011011101110
0011110110111110
0011101010100100
1010011110100010
1011000001001000
0011001011011111
0011100110010001
0011001100001001
0011011010011010
0011100110100111
0011111100001011
0010110110111110
0011100000101011
0011100100000100
1011010111111001
0011110101010110
0011110101111000
1011111010001001
1011111011100100
0011101110110101
1011110100010101
1011011010110110
0100000001100011
0011101000011010
1011111011000010
1011000101100010
1011001111001000
0011000110101111
1011010001110111
1011111101010101
0011100111101011
1011110010111110
1011101000101010
1011010110110111
1100000000010110
0011010110111010
1011110001110011
1011010000011100
0011001000010101
1011100110011100
0010111000000110
1011110000001111
1011010010110000
1011010011110101
1011111101101101
1011001101100110
1011110110100000
1011010111100110
1011101001000100
0011000101010100
1011011100000111
0011100100011010
1011111001010000
1011100111100010
0011101111001001
0011110001010110
0011111001100100
1011010100011110
1011100100101110
1011110001001001
0011101010011111
1011110110111011
1011101000011110
1011110010011100
0100000000001010
1011011111100011
1011111111001111
1001111000110101
0011100110111100
1011101001010111
0011011000001110
0100000100001010
0011100100001101
0011000000110010
1011000000000110
1011100001110110
0011000011001111
0011100000010101
0011011011111010
0011111010110110
0011111110111011
1011110000000010
0011011011000011
0100000000111010
1011010111101101
1100000101010010
0011111110110011
0011100101010010
0011010110001100
0010111010110000
1100000000001111
1011110011010100
1011101110100010
0011101011001010
0011110010011001
0011101111100011
1011100010000100
1011100011101001
1011110110001000
1011100010010000
0011110111110011
0011010101101011
1011000011011101
0011110011010111
0010100101101001
1011111001100010
0011101110010010
1011110101000101
0011110100111011
0011101001100010
0100000010010010
1011110101100100
0100000101111101
1011101011111110
0011111110110100
0011101100001011
0011111101110101
1011110110010011
1011100100000011
1011110001000010
1011101101010001
1011101000010111
0011100000111100
0011100110010110
0011011111110111
1011111010010010
0011001110110110
1011100111010010
1011110000000100
1011110101010100
1011100110011000
1011110011111010
1011110001011011
0011110110000001
0011110001100100
1100000000111110
1010110000110010
1011000101100000
1011010011101010
0100000010011001
1010101110100000
0011110000000101
0011111100011010
0011110011101111
0011010000000111
0011100011001111
1011101011111111
0011110100010100
1011101000001000
1011001100000001
1011011010101000
0011001000011001
0011101111011000
1011111101101111
0011000000010110
1011101100110111
1011110000100010
0011001011110010
0100000000001001
0011101001011001
0011110011000111
0011100110110000
1011110111101000
0011011110001011
0011100110010010
0010110001100001
0011100011110100
1011000011100110
1011110110111110
1011100110010100
0011110101000100
1011001101100001
0011000100011010
0011111101111110
0011011011101000
0011110001001111
0011100010111000
1011110100101011
0100000010001111
0011100111110111
0011110111101010
0011110100100100
1011111010100111
1011110001111001
0011110100110000
0011010111010111
0011101010000010
1011111010111011
0011011001110011
1011010101010100
1011110101101001
0011101001001101
0011111100111000
0011000000000111
1011011111000011
0011100100010011
1011100101011001
1011100010100011
1011110010011100
0011101100011011
1011101101101010
0011001011110111
1011001000100011
1011100011011000
1011110001111010
0011110111001001
1011011111010000
1011101001010111
1011111011101010
0100000000101011
0011111000010010
1010111001111110
1011101101001101
0011010001000011
0011011000001011
0010111010101010
1011101000100101
0011000000001111
0011101100100111
0011100001111101
1011110011011111
1011111110001000
1011101000100000
1011001001010111
1011101001011010
0011101100001011
1011010101000100
0011110010101100
1011110101001010
1011010000010100
1011010101000011
0011100001111000
1011010100001001
0011110100000010
1011011110100001
1011110000101100
0011100010000000
1011100011000101
0011100100100001
1011111010100001
1010111000000010
0011110000010111
0011110100010010
0011110000101101
1011110001001101
1011000010001111
0010001110101111
0011011101001011
0011100101101011
0011100011110100
0100000011100010
1011101110101111
0011000111111001
1010100010011111
1100000000101000
0011010111101001
1010110110000100
1011110011011111
1011010111111010
1010110010101001
0011011100010001
0011010001010111
1011010011100110
0011101000110111
1011110110010011
1011010100111100
1011110100110011
1011101100100000
0011100010111000
1100000011000111
1011011010011010
0011110010010101
0001111010101001
0011010110100110
1011101011110111
1011000010001000
1011111111101101
1011100010010111
0011100000101110
1011011111011110
0011110001000111
0010101010110111
1011110111100000
1011010111011110
0011100001000101
0011110110010110
1011111111101001
0010101000001111
0011101111000110
1011101011110011
0011010011101011
1011001100010111
0011001101100010
1011100101010100
1011101001100000
1010101100000101
1011101000110110
1011101100011110
0011111010111011
0011110000010010
0100000101110011
0011100000010100
0011000011011001
0100000010000111
0011010100101000
0010101111010011
1011100010100110
1011100111111001
1011000111010011
1011110001100001
1011111110111010
1011011101011001
1011100100111110
0011000100011100
0011101011011110
1010111011110111
0010111100111001
0011010111101110
1011100011111010
0011010000000001
1010110011011011
0011101001010111
0011110000000010
0011011011000010
0011110011010100
1011101110100010
0011100100000111
1011010100010011
1011101110100100
0011110110101111
0011001110111011
0011111010100100
0011010111110001
0010100011001111
0011001011111101
0011100111111011
0011110000011100
0011001010110101
1011011101001111
1011110001000001
0011011000110010
1011100000110111
1011110001100100
1011110001111111
0011010000001101
1011100011110011
0011100111110001
1011110111100011
0011110000100111
1011110001011101
0100000100100100
0011110100100011
1011100111111011
1100000011110101
1011111001011011
1011101100010101
0011110000101010
1011100010000101
0011100010000001
0011010000101000
0010111100011011
1011101000010000
1011100010001001
0011010101110110
0011000000001101
0011001001000111
0010001100110000
1011000101001111
1011101100110110
0011111010100111
0011011011110001
0011010110100111
1100000000101110
0011100010100100
0011001000000011
1011110101010011
0010010100111100
1011001111111011
0011110010011100
1010111001001010
0011011101010011
1011101101001100
1011100101011011
0011010010110000
1011100111111001
1011101101010110
0011000110100110
0010110110000110
0010111000011100
1011111011101001
0011111010101111
1011000101100100
0011101001001101
1011100101000001
0011101111101011
0011110110110111
0011110011011111
1011011010010101
0011010100011110
1010110000001110
0011100010110001
1010110010100101
1011100011001101
0011100011011010
0011101001111000
0011111110000111
1010100101100011
0011110111010000
1011100010001111
0011111010001111
0011110000100100
1011110100111000
0011110011100001
1011010001011111
1011110100010101
1011110001001101
1011100001110101
0011010110100000
1011011001100000
0011011101110000
1011100000101101
0011101111111110
0011110001000101
0011011000010110
1011010011011001
0011100101100010
0011110101001100
0011110100100000
1100000000101000
1011110001101110
1011011100101001
1011011011010000
0011101000010111
0011010011001000
0010101100011101
1011110111101110
1011011101000110
0011111010110010
0011100001000011
1011101111000011
1011001111111101
0011000001100101
0011111000010111
1011100111000011
0010011110111101
1010100100001011
0011100111101110
1011110111100010
0011010110101001
0011010100110001
1011101000110110
1011010011110111
1011110101010011
0011111001011100
0011110001101010
1011101011011000
1011110000110010
1011011000010000
0011000010010101
1011111000111110
0010110111111101
0011000000010000
1011010111000011
0011111000010000
1011110000000010
0011110011110011
0011011010001111
1011111101111010
0011010010100011
0011110100010111
0011100100011110
1011101101000110
1010111100001011
0011101101011100
0011010110000000
1011101011111011
1011101000011010
0011100001001000
0011111011100001
0100000000011001
0011100110001010
1011001011101110
1100000001101100
1011110011010000
1011110000110000
0100000000101010
0011110111000000
1011111100111110
1011001111111100
0011110011001111
1011101001011101
0011010100000111
0011101111001011
1011101111000101
0011101100101001
1011100110010110
1011110100101011
0011100000001111
1100000000111001
0011101010111100
0011010100000000
0011110011110001
0011110110110100
0011100101011111
0011100010000010
0011000000100000
1011100001110101
1011100010110000
0011110000000011
0011101010000100
1011100000111111
0011110101101011
1011101101011111
0100000011010111
0011010110011010
1011101011101001
1011110100100011
1011110010101100
0011110000100101
0011001101010100
0011110010101000
0011110101110000
1011011000000000
1011110011101101
0011101010000000
1011100001111100
0011010101010011
1011101011000010
1011110001101101
0100000011010010
1100000011001111
0011000000011111
1011100100101111
1011010011010011
0011111111110000
0010110000110000
1011100010101010
0011110000011100
0011110110000010
0011010001111100
0011101111101001
1011100011001100
0011000000101001
0011100101100100
1011111110011111
0011110110010110
1011000110000101
0011101011111001
1011101100101011
1011010100010010
1011101110010100
0011110000011001
0011101100001010
0011010001011011
1100000010110101
0001101001100110
1011011011100011
1011110111101001
0011101000011011
0011010100001110
1011110101110111
0011110100100001
0011110110100101
1010101001101101
0011010111000111
0011100101010101
1011100111101111
0011011010011101
0011010010010010
0011000101100011
1011011110100000
0010110011101001
1011110111010110
0011011001000000
1011110100011101
1011110001011110
1011110110000000
0011110110010000
1011100100000110
1011110110000101
0011000100000010
0011011101101001
0011010111010001
1011011111001000
0011100100010000
0011111100010100
1011010110101111
0010110011100001
1011110010111101
1011110010101101
1011101110001011
0011011100010001
1011110011111111
0011110111010110
0011000100110001
0100000001011001
0011110111111101
1011101110110111
1010101100110000
0011011010000101
0011101010011100
0011011101010000
1011000100000111
0011100110110000
0011110000100101
1011001100001011
0011110011011101
0011001001010001
0011000101010000
1011001000010001
0011100100101001
0010101001010001
1010110001000001
1010111111000011
0011010110001100
1010111100110100
0011110110000011
0011100001010100
1011100000000010
1011011100100101
1011111001010000
1011110100111000
0011000010110001
1011001000011101
0010001101000111
1011010100001101
0011110111010111
1011101011101101
1011011001100111
1011011110011111
1011101001011101
1011101110111110
1011110110011011
0011100011010100
1011000011110110
1011000111101010
0011101001100011
1100001000101101
1011110010111110
1011101010101001
0011101000011000
0011101111001001
1011011011111101
1011010100011000
1011010010010000
0011110010000000
1011101110110101
1010110110010001
0011101100001000
1010110011010111
1011011001001100
1010100010101000
1011110001011111
0011111000010001
1011110010000010
0011110001001110
1011010100100101
1011001101110001
1011010000010010
1011101011111100
1011111001100000
0011010100000100
1011100001101101
1011111100101010
1011100101111010
1010110100101111
0011110000001010
0011110010010010
0010011100011001
0011111111110011
0011111100010101
1011100000111110
0011010110101101
1011011000100100
1011010111101111
0011000111010001
0011101100100100
0011010001100001
0011110110001100
1011100010101101
0011011000110001
0011100011011100
0010101001110001
0011010111010111
1011101111110110
1011100101110001
1011101001010000
0011011010100111
1011011111100000
0011100011000000
0010111010000000
1011001001000100
1011100011011111
1011101100011110
0011010010110000
0011100001100101
1100000111110100
0011101000101010
1011101011011001
1011100010011101
0011010110101010
0100000001101011
1011110000110010
0010111100001110
1011110010000010
0011101111111000
1011110101111111
0011101100011100
1011100000110110
1011110101001110
1011110001000000
1100000011011101
0011010100101101
1000010110110011
0010011000101000
1011111010110010
1011100110000001
0010110101100110
0011100000110111
1011100000011010
1011110100111010
0011101101101101
1011110110010111
1011101001010011
1011100111100010
1011010001101010
0011101010000101
1011100001110101
0011110111110000
0011101011010111
0011101010010001
0011101100111010
0011011011100010
1011110110111000
1011100100010011
1011000101111101
1011110100000100
0011010100011010
0011111010010001
0011000100011000
1100000011111101
0011110010001010
1011000111010010
0011101110010000
1011011100001011
1011010101111011
1011110100110100
1011110111111001
1011110100011100
1011010111011101
1011100100001001
0011010110011011
0011010010110000
0011110000110111
0011110001110100
0011001001100110
1011011101001001
1011000111010011
1100000011111110
0011101010001111
0010101001010111
0011100110011011
1011101100000010
0011110000111110
0011110101001010
1011000100000010
0010110010010111
1010011011000100
1001011000111001
1011101011000000
1011001000101001
1011110101101001
1010111000010010
0011000011100101
1011110001001101
1011111001000010
0011011010100000
0011111010100111
0011001001100101
0011110000011000
1011110110011111
0100000000100001
1011111001110101
1011100010000100
1011110001111110
0011000110111011
0011110100010101
1011110011001011
0011101110011101
1011100011001010
1010110110110111
1100000100000000
0011110111111011
0011010010001110
1010110011011011
0010110110110100
1011100011011100
0011111110101010
0011001010110000
1011001111011101
1011100011111100
1011110010111101
1011110011000011
0011010110110101
0011100100111111
1011000100111000
1011100011111100
1011010001011100
0011011011101111
1100000000010011
1011110000011001
0011010001100010
0011100010100000
1011100011011000
1011010010100100
1011101101000111
1011110010010010
1011011111010010
0011110001111001
0011101110000011
0011110110001100
1010111110101011
1011100010010001
1011100011110100
1011100010000000
0011111011100001
0011110111011101
0010100100000111
1011100110101000
1011100000100001
1011010001111011
0011100001011010
1011011111000110
1100000011010011
0011011101100111
1011110000001111
1011100000001110
0011101011111100
0011101100111010
1010101100001101
1011011010000101
1011101100101001
0011000111101111
0011110010100110
0011101111011101
1011100110001101
0011111000011001
0011100100001110
0010111011000000
1100000000100100
1010111011110111
0011010101101000
1011110100010010
1011110010110111
1011101000101101
1011100110000000
1011111010110100
0010011010110111
0011001110011000
1011101000000000
0010010000110010
1011000110101101
1011100000011001
1011000001110000
1011011011000100
1011000101100100
1011011110011001
0010000011011101
1011011001110111
1100001001110110
1011110111011110
0011000101001110
0011011110111010
1010010100000010
1011101011110000
0011000000100100
0011001111000111
1011110100000100
1011000001000101
0011111101001101
0011111010101111
1011010100111111
1011100001011001
1011101101111001
1011101111111100
0011100000001011
1011101010110110
1011110000011001
0011101011100000
1011100010111100
1011110010100100
1011111010011000
0011101001001001
1011101110000111
1011100001001110
0011110101010001
0010110101101011
0011101101100101
1011111000001001
0011001110110111
0010111011000000
0010101011010011
1011001101010010
0011101111011111
0010111010010000
0011000110111010
1100000001100011
0011111110101010
0011010101010011
1010100010000100
1011100110001011
0011110001100100
1011110010010001
1100000001111110
0011110000110110
0011101111111111
1011010100011011
0011001000111011
0011001001011100
1100001010001000
0011100010111101
0011101000011101
1011100111111100
0011010001000110
0011101110110101
0011101000101100
1011100110100110
1011011100010011
1011010110010100
1011011011100100
1010101100000010
0011000001000110
1011100010110110
1011010001110001
1011101010011111
0011100111001010
0011110101111000
0100000001001111
1011000011000001
0011111100000111
1011110110111001
1011000101010100
0011010011000110
0011111001010101
1010001010011001
1011100100010010
0011101010011010
0011111010010000
1011000101101100
1010000001011101
1011011111100010
0011111111110110
1011100110110010
1011000100101001
0100000100000110
0011110100011101
1011101010100101
0011010110110101
0011101011001000
1011110101011111
1011101010111011
1011101010110010
0011110001011100
1011100110101100
0011100001101101
1011011010001100
1011101011111000
1011101101011010
1011011011100001
1100000000111110
1011101101101100
1011010000110010
0011011001010001
1010101000010111
0011110101100111
1011110001101011
1011010001100101
1011110111111101
0011010011101101
1011111100110011
1011010010111010
0100000011010101
0011100001010110
0011000000010100
0011011011110001
0011101011111111
1011111111100011
0011001101100111
1011110110101010
0010011011010010
1011100000001101
1011110001111101
1011111100001100
1011101101101010
0011110011100010
0011111010101111
0011001011101010
0011110000011110
1011100011000111
1011010101001000
1011010111011111
0011110010000000
1011011100011111
0011010011100000
1010111111100101
1011001010010101
0011011011111001
1011100101101011
0011100001000011
1011101011100001
1010100110011010
0011000001000000
0011100000001011
1011011111011100
0011111100001100
1100000001110110
1011010110000001
1100000000101000
0100000011111011
0011101000001010
0011010101010111
1011110010110100
0011100001001010
1010111011111110
1011101011110110
1011110011101100
0100000011011001
0011111001110101
1010111001111101
1011110111100110
0011011011100010
1100000011111110
0011001111101000
1011011101100100
1011100111110110
1011001001010000
0011000011111010
1011110110101000
0011011101110100
0011101100011110
1011110111100110
1011110000111101
0010111011011010
0011111101001010
1011110100110000
0011111110001000
1011100001101110
0011100010101110
1011101000000111
1011111100100111
1011110001110101
1100000011000011
1011010001101000
0011110100100101
1011011101100111
0011100100111001
0011110011010001
1011110001011001
1011011110110100
1011100110101101
0011010000001001
1011011010010111
0011110010101111
1011111001010110
1011010011011000
0010111111010101
0011101100111100
0011000111100101
1011101101000001
0011010101101010
0100000001011101
0100000000100001
0011011101010101
0011111111001000
1011001101100000
0011101011111000
1011110111000011
0011111001000111
1011110011101011
0011010000100101
1011110100000111
1011010000110100
1011100010110010
0011100110010100
1011111001100110
1100000100011111
0011011010001000
0011110111001100
0010101001011000
0011101010010000
1011110001100110
0011101001110101
1011100000101011
1011110011110101
1011110001010001
0011100001011101
0010101000010010
0011010101011001
1011111000010001
1011100000101011
0010110001101111
0011101111000001
0011111001010001
0011100100000010
0011000001110011
1011100011101110
1011101011000011
0011110010010011
0100000100001110
1011000100101111
0010101100000000
0011010001111001
1011001111100111
1011011010111010
1011100010010001
0011101010001011
0011010010000000
0011110111110000
1011101100001100
1011000110010110
0011110100001000
0011101100000010
1011101011010100
1011101000100010
0011101010111011
0100000001111001
1100000010010011
0011110011001101
1011010010011010
0011110111000110
1011010101111101
0011101011000010
0011010001000000
1011110010001001
0011010101010010
0011010101011110
1010110100001110
0011111010110101
1011100010010100
0011010111100111
1011111100001011
1010111011111001
1011100111010111
0010101001011010
0011110010100100
0011001111111011
1011000100010100
0100001001101011
0011001101001011
0011111010011100
0011110011111010
1011011101001100
1011011001101111
1011010011001111
0011011110100100
1011110010010001
1011110001000100
0011100010000011
1011110001000110
1011010101101010
0010110001011111
1011101000101010
0011110101100011
0100000001001110
0011001101011100
0011110001010100
1011010010100001
1011110001100100
0011100110001110
0011110100000110
0011101011101011
0010111000011111
0011011111010100
1011101100011111
1011110010010001
0100000101111000
1011101010100001
0011101010011011
1011110110111000
1011100000010011
0011110010100000
0011011111010011
1011101110011100
0011011100011110
0011111000011100
0010111001100110
0011110011001000
0011010100001001
1011110110111001
1011011010110011
0100000000001111
1011101100000110
0011111001101111
0011110011001001
0011101110001001
1011110010011010
1011010111100100
1011100100011001
0011011110000001
0011011010011100
0011101111011100
0011101110001000
1011111011111110
0011111101100010
0011111100100001
0011100111100001
1011110011001010
0011100011010101
0011101101011111
0011100101101110
0011111001111101
0011011011011011
0011101011001111
0011110101011000
0011101101010110
1011101011101111
0011110110010101
0011100100100010
0011111000100100
0011101100011010
1011101001110111
0011110110101110
1011100011011101
1011101000111100
0011100011010001
0010101101000110
1011111111111110
0010101110001110
0011101001000101
1100000010110011
0011100110100001
0011011010111101
1011110100110001
0011011100100010
1010111011000000
1010111011001000
0011010000011000
0010110111100001
0011011100001010
1011110001011110
1011000010011100
1011111010101011
0011100000000000
0011101111110010
1011100100001100
0011010010010110
1011011101000011
1011100110011010
1011110100010100
1011000111110101
1011111000000011
1011111011001010
0011111010111101
0011111010110100
0011010000110001
0010111011111000
0011100111011001
1011110001111010
1011101000011110
1100000010000110
0011111001101000
0011010110000001
0011101110011110
0011001001100101
0010111000110111
1011110111001000
0011110001110110
0100000001110000
0011001100001011
1011011111011000
0011001011111011
0011100110000110
1011100101101000
1011011000010011
0011001111100011
0011111001100011
1011111101111011
1011100110010100
1011110111000111
1011110001010111
0100000000000111
1010101101000000
1011010001011111
1011010111010000
0011100110011100
1011011101011000
0011110011100100
0011011001001010
1011001110000100
1011110101001001
0011010001100011
1011011110011111
0011010010001111
0011100010101010
0011011111101000
0010101011010011
0011010010101111
1010111101110110
0011011010100011
0011001100101001
1011100110011110
1011011110100110
1011100000000000
0011101101110111
0010011101101011
0011110101101100
0011010010101111
1011110101001001
1011101100110100
0011000100000001
1011011100000000
0011110101011011
0011100111011001
1011110001111011
1011010110110011
1011100101001100
0011001011101110
0010111101001100
0011001100001001
1011100110010110
0011101110011011
1011101100011110
1011100011000011
0011000000001101
0011100010101010
1011110110000110
1011100100010110
0011011111110100
1100000100000010
0011101011010001
0011010011010000
0011110011011100
0010100110011101
1011100010001001
1011100001101000
0011110011100111
1100001011110110
0010110000010011
1011100100011110
0100000101101111
0010110001001011
1010111110000010
1100000001011100
0011011100100100
0011010000111100
0011001000110001
0011110000000001
0100001101001001
1011111000100000
0011100001001101
1011110010010010
0011110100111101
0011110101011100
1011001101111000
1011110010001101
0011100110101111
1011011111110010
0011111101111111
0011010110111100
1011111001110000
0011101111010010
1011000000110001
0011010100101111
0011010000110111
1100000010001011
1100000100101011
1100000000101111
0011010010010010
0010111011001011
1011011010011010
0011001111001100
1011101000101100
1011111001101000
1011100110100111
1011010011101001
1010101101000011
1011111010011101
1011011000000100
0010011001000101
0011110010100010
1011101101111100
0011100110110100
1011111111001011
0010001000100110
1011101101011010
1011100110000001
1011011111011111
1011101010101111
1011101011010001
0011110111011000
0010111101011111
1010100001110100
1011011101001100
1011110000100111
0011100110011100
0011100111010110
0011101011001001
1011111111001101
0011111011001010
1011100101110100
0011101100001001
0010101011010110
0011100111001011
1011111101101100
0011100001101001
0011101010010001
0011110111100100
0011101000110010
0011110010111111
0011011111101011
0011010110011110
1011101110011100
1011110001100011
0011110100101100
0011010001001111
1011101001110111
1010100101111010
1011111010010110
1011100010010000
0011101010010010
0011001100100000
0011000011010001
1011110101111110
1010010101010110
1011110000011100
1011101010101111
0011100110101000
1011010010111101
0010110001100010
0011101010011100
0011101110010100
0011110100100100
1011100001110100
1011111010011011
1011100101010111
0011001110101100
1011100100011110
0011000100011011
0011010000101000
1011011001010111
0011101111001010
1100001000100110
0011110000110011
0011000001111000
1011110100100101
0011100101111001
0011110110011011
0011101101000101
1011101110110011
1010110000001110
0010100001101111
0011110000011010
0011111001011000
0011001000100000
1010110111001100
0011000000110111
0011001110010111
0010011010010100
0011100100100010
0011101100100101
0011110011101101
1011110001111101
0011101101011100
1011101001001001
0011110011110101
0011110101011001
1011101010001010
0011100100110101
1011001111100011
1010100010110010
1011101100100000
0011100010001010
0011011110000110
1010111000110001
0011100110001000
1011100000101111
0011010000100101
1011011011111001
0011110100110101
1011110101011010
0011010101110100
0011110111110101
0011100100011100
0011101110101101
1011110110101110
1011100001000001
0100000010001110
1011010100101011
1010100111111010
0011111000011110
1011110000011100
0011111011111011
0011110011001011
0011100110110011
1011100001010010
0011010000000101
1011101011011110
0011111010101101
0011111001011110
1011100000011101
0011101001110100
0011011101010010
0011111101000101
1011100111110110
0011101101000110
1011101010100110
1011101000111111
1011100010001110
0011111100000100
1011111111110110
0011010111101101
1011110100101010
1011110000110011
1011111010010100
0011101100011001
1011011101000111
1010100101001010
1011011100001000
0011010001111111
0011101101000000
0011011000010001
1011101001100000
0011100000000111
0011111010010100
1011010101001000
1011100110001110
1011101000000111
1011101111001111
1010110110010000
1011011101100111
0010101000010111
0010001001111100
1011101001000111
1011110011001100
1011010000001001
1011100010111010
0011100001001001
1011010110101100
0011010000100101
1011100010011110
1011100110000001
0011110000001101
1011111011000100
0011000110110101
0001111000001101
0011100010101101
1011100000000010
1011101111001011
1011101110000000
0011110011100111
0011110110000101
1011001110011010
0011110010110111
1011111100111010
0011010001101100
0100000100101110
0011110011100000
0011101101011010
0011100100000100
0011111011000010
0011110110110110
0011100000111101
1100000001100111
0010111011010010
0011000011111000
0011100111100010
1011101100001010
1011100101111000
0011110000110111
1011010111100011
0011011010110011
1010110011000010
1011110000111111
0100000000000101
1011111110110000
1011011100101010
0100000011111000
1011101111111101
1100000000000101
0011100111101101
1011100000001000
0011101000000000
0011011100011111
1011000011110111
0011110000101001
0011010101001000
1011100100111110
0011110011101111
0011101000101110
0011101111110000
0011110101101011
0011100000000100
0011011101010110
1100000100010001
1011111001011100
1011100001100010
0011110110111011
0011001011001100
0011100011000010
1011110001011100
0011101100000010
0010100001111011
0011011010100010
0011101010010001
1011101100000011
0010111010011011
0011100101000010
1011001001101101
0011100100001101
0011100100001011
0010000011011000
1011101011011011
1011110111111010
1011100000000010
1011100010111000
0011110110000111
1011111000011011
0011001000010010
1100000001001110
1011111000010100
1011110000100011
1011011111010000
0011100101010001
0100000010110000
1011110001100010
1011110100010110
0011001100101010
0011010010110100
0011001010100001
1011000111010100
1011010100010000
1011111010111110
0011001011011001
0011101111111000
1011011100011010
0011011000001001
0010110011100101
1011010000011001
1011100011001011
1011100010110010
1011111111110000
1100000111011000
0011110010100101
1100000000110001
0011110110101001
1011100000100101
1011111000000011
1010110000111111
1011011111010111
1011010010111101
1011101100010101
0010111111010011
0100000010001011
1011100011011101
1010011110010101
1010010100001001
0011100110100100
0011100110110011
0010111001101011
0011110001100111
1011100110011000
1011111101000001
0011111010100000
1011111100100000
0010101101000111
1011101011000011
0011101101000110
0011101000100101
1011000000011110
1011010000100110
0011100100110011
1011110101111100
0011011001001001
1011001000000110
1011110101001011
0011111000100001
0011011001011101
0011110110001100
1011110011010101
1011010101101010
1011101100110101
1011101100101011
1100000001100010
0011100110011011
1011001100010111
0010100001111100
1011110001110101
1011110011111101
1011101010011110
1011011110111011
0011110101000000
0011111010000110
1011100010010100
1011101010110000
0011100000111111
0011101100110101
0100001011010010
1011011100111010
1011110110000100
0011110000111010
0011101001101001
1011101100110010
1011101011101010
1011100110110010
1011111001000011
0011110011011011
0011110000001110
1001011101101001
0011110001011100
0011011001011110
1011000110101100
1011111001100100
1100000000111111
0011101100101111
1011100100111100
1011001101110000
1011010000010110
0011011111110110
1011100011011001
0011100011110110
1011111000011001
0011010001110110
0011010000111010
0011101011011000
1011010101110001
1011110000101001
1011011101010100
1011100001110001
1011101011100110
0011110100001101
1011010010111100
0011010110010101
0011111001100001
0011111111010101
0011100010011100
1011110111000000
0011100000110000
0011110111101101
0011101011110001
1011100011001010
1010111011001100
1011111011010010
0011100101101010
0011111001001100
0011010111100110
1011100101110010
1011100110110101
0011111010001000
0011110000000101
0011100101101001
0011010101100111
1011010101110100
1011111111101011
0011011001100011
1011010001110100
1011110010101110
1011110011110110
1011110100001111
1011110000010100
1011110111010111
1011000111110111
0011100100100001
0010101000111100
1011101001101111
1010010010011110
0011101001111111
1010110001010100
0011100010101001
1010001000000100
0011010111110001
1011110101111111
0011010010101011
0011110001011011
1011011001100010
0100000010001000
0011101101010000
1100000101000011
0011110100011011
0011010001100000
0011110100000010
0011001011100010
1011011011111001
0011010100101110
0100000001010001
0011101001111111
0011110111100010
1011100001100000
0011110010000100
1100000011111111
0011010000111000
1011101111111100
1011010000101001
0011101100101101
0011011011110010
0011110010010010
1011110100110101
0011011001100010
0011100001111001
0011011000011101
1011100100111000
1011100000100110
0011101011101001
0010101011101000
0011100101100011
1011101011000100
0011011110001000
1100000001011001
0011100100011001
0011110001100111
1011010111000100
0011000000011011
1011101010001011
0011100011110110
1011100110000010
1011110010100000
0011001010100100
0010110010101011
1011101111011011
0011000101011010
1010111001000000
0011010101101100
1011110100111101
0011010001101101
0011110110111011
0011001110100101
0011010000001001
0011111101101000
1011111101000010
0011100101111101
1011000111101111
1011100111001101
1011101010111010
1011110011010111
1011110001101111
0011100011100100
1011101000000111
0010100010011100
1011101010011000
0011101100111010
1011111101011010
0011110100111001
0011110011110101
1011101011100100
0011100011100110
1011100101111110
1011110110111001
1011011110001010
1011110011000100
1011101100011011
1011101100000110
0011011100010011
1011010000100110
1011100001110111
0011111000000010
1011110111110101
1100000001010101
1011110101111111
1010101100001110
0011101010000010
1011111101101100
0010110010111111
0011100011101011
1011000010010011
1011010010000010
0011100000010000
0011000110011101
1011101101001000
1011100101111000
1011010001001100
0011100101111011
1011010000001111
1011101011010001
0011100110101010
0011011100101001
1011100001011011
1011010000011110
1011011101001111
1011110110001110
1011111001001011
1011001101101101
0011111010101110
0011110101110001
0011001010000100
0011101100100110
0011110100011011
1011101011110000
1011110000001011
0011010101110000
1011000110010100
0100000011101111
1011101010110111
0011110000111100
0011100010001110
1011110010100000
0011100100101110
0011111111110010
0010100010011101
1011011110100001
0011101100101010
0011100000111111
1011110100110111
1011101101000001
0011001001100011
1011010001101110
0010111100001000
0011001111111001
0011010100000110
1011110000111111
1011110011011110
0011110111010010
0011011001101010
1011010010000010
0011000100110101
1011111001011000
1011001000011111
1011011010100011
0011000110011010
1011101000001111
1011011111101110
1011100011000010
1100001010001110
0011001100011110
1011011100100010
1100000000011111
0011100110101110
1011101011101101
0011010001100010
1011101000011110
0011100010000000
0011011101111101
1100000000000000
0011110000110001
0100000000011000
1011110000000011
0011111111000001
1011011011000010
0011110010010011
1011110000001011
0011110001000100
0011000100010100
1011110011000011
0010111000011101
0011110011100010
0011111001010100
0011100100111111
0010010101001110
0011010111111101
0011100011101001
1011011010100000
1010100000010011
1010111001010110
0011110001011101
0011010111100111
1011010001001101
1011101101111001
1011011110010000
1011101101010101
0011100010001001
1011011110010011
1011101111010111
0011101111001101
1011010100100111
1011001101111010
1011001001111001
0011110110010010
0011001110000000
1011100111101100
1011110000111101
0011100000111010
0011010001010101
0011110101000110
1010110000000000
1011010111101111
1011110001000001
0011000110011110
0011110010000101
0011110001110010
1011110010101010
0011101011101001
0011101011111101
1011111100000101
0011011100000100
1010110111100100
1011111100010001
1011111011110001
1011100010111011
0011010101101000
1011110111010101
1011110100000110
0011111101000010
0011111101011000
0011110001100011
1100000001101100
0010101011001010
1011001110011111
0011010111100100
1011010000110001
1011011111011101
1011100010100101
0100000011001010
0011010100110000
0011111010011011
0100000110110000
1011000100000110
0011010100101010
0011100011101001
0011110110011110
0010111000101000
0011100111001101
1011101110111011
0011011111000001
0011101101100101
1011001111011000
1011100100101010
1010111000011100
0010111101110000
1011110001011000
1011101100100010
1011100110010010
0011011101001011
0011001001000010
0011101011000110
0100000011010100
0011100111010010
0011101100000010
0011000111111000
1011110011011100
0011110011111110
1011010110011110
0011111110101111
0011111111110011
0011110011101001
1011010011010000
1011110011110011
0011100000100011
0100000001011000
0011100100110101
1010111101000101
1010011101100100
1011111101000010
1011100000101110
0001111110010011
0011101000101110
0011011110011000
0011011100100110
1100000100100001
0010111000111101
1011100101010111
0010110111101001
0011110111100111
1011111100110000
0011110111110000
1011110011101001
1011101011101010
0100000001111111
0011111001010111
1011010100110110
0100000001100000
0011100010110100
0010110010000011
0011010000100100
0011110011000111
0011100100011101
1011010111000111
0011100000000001
0010100010011111
0011111110111001
1011101000001010
0011110101101100
1011010101110100
1011100110110011
1011010000011101
1011110111101100
0011000100011011
1011110010011000
0011010010000101
1011000111010011
1011101010010010
0011001011101101
0011101011111001
0011010001111011
0011010110101111
1011100100001111
1011110111001010
0011100010110011
0011101010110111
0011100101100100
0011010010000001
0011010110000010
1100001000001001
0011011001010100
1011111011100001
1010000011011101
0011011011101000
0011111101111100
0010111000001010
1011110001100001
1011001010000000
0011101001110001
0001111100011001
0011101000101101
1011100011001001
0011100011110110
1100000000110110
1011001110001111
0011011000101100
1011100000010010
1011110011101011
1011011000001011
1011011001111011
0011110110101101
0011110000010100
0011100111100010
0011101110100011
1011110111100001
0011001010101100
1100000101101011
1011010000100100
0011111111100011
1011010010111000
1011101011001010
1011111011000100
0011101000101111
1011111110111101
1011100000111000
1011101110011010
1011000011101010
0011011100010100
1011111110001110
0011100110011110
0011110001010000
1011100001110101
1011011000011011
0011110011010110
0011100111101101
0011110000001110
0011011000111111
1011100110100100
0011001011011110
1010111011000111
1011100011111001
1011100101001101
1011101010101111
1011000010000110
1011101010001100
0100000001110001
0011101100010000
0011101011001111
1011101101110101
1011100011010101
0011110111010110
0011111100001011
0011101111110010
0010111100100001
1011000110000010
0011110100100011
0010101001110000
0011100101111100
0100000000011100
0011110001000110
0011111011111011
0011101100100010
0011110001110111
1011100010110101
1010101010011111
0011100111101010
1011111001001110
0011101011100001
1011000111101001
1011001101101101
0011011100000111
0100000000011010
0010011100000010
0011111000010001
0011000101111010
0011100111001110
0011100111001110
0011111100100000
1011011000001100
1011110010010101
0011101001000101
0011101000010100
1011110101011110
1011110001111010
0011101101010101
1011010101110100
1011110101001100
1011111001101000
0011010010101110
1011111100011011
1010110000101000
1011100000100111
1011011000101001
0011110011100011
0011110010110110
1011101111000100
1100000010101110
1011110101110000
1011001010100101
0011101100100000
0011011101001000
1011110100110101
1011111000000010
0011101001001111
0010111010010001
0011110010010001
1011100100010100
0011110010010011
0011001010001001
0011010100000011
0011001111010111
1011110110101110
0011000110111000
0011101101011001
1011101100010111
0011110011100101
0011111010000011
1011110110100110
0011110001011100
0011101000110100
1011000010100100
0011101101101001
1011010001101110
0011111010101100
1011111000100111
0011110111101001
1011000110111100
1011010011001100
1011000111100010
1010111000101101
1011101000011110
1011010110010101
0011011011010111
1011111111000000
1011100010011100
0010110110000001
1011101110110010
0011011100111100
0010111101110000
1011110000010010
0011000010000011
1011101011101011
1010001110000010
1100000101100010
1011001101110110
0011110011001100
0011100111001010
1011010000001001
0011110101011101
1011101100111101
0011011111000000
1011100001111110
1011111010111000
1011101101011110
1011000010011011
1010111010111011
1011110110001110
1011101110011100
0011110011110111
1011111000011110
1011101111001001
0010111111100001
1011111000001100
1011111100001001
1010010010100100
1011100001100011
1010100111000011
0011110010001101
0011100011111100
1011111001001111
1100000101100001
1011110101010101
0011111110010000
0011010101111100
0011100101000100
0011111001111011
0011100000001111
0011111000110101
1011110110000111
0011110011010010
0011011100100010
1010111010110010
1011100010001011
1011011100111111
0011000111111100
1011110000011101
0011010000001101
0011110100110011
1011011101000001
0011111110000001
1010010001111101
0010100100111111
0011111101111110
1011111011010100
1011010100110000
0011100011000110
0011010110000011
1011010010000111
1011110111110010
1011100000011011
1011111011011000
1011011111111001
0011100001011000
1011110100110111
0011110010010010
0011011100101100
1011101111010010
0100000011100111
1011100011100110
0011011110110010
0011100011000101
1011110011100011
0011100111111100
0010110000001011
0011010011001110
1011111000101110
1011101100001000
0011110001000001
0011000101110001
0011100100110000
0011010110100101
1011011000000101
0011110010101111
0011101000111000
1011111001010101
0011100010100001
0011100010100001
0011100001010111
1011000000101001
0100000100100000
1011101110010011
1100000000101011
0011011111010110
1011111100100101
0010110110111000
0011000000010101
1011101010000011
0011110011011010
1011111010001001
0011100001100011
1011011011110100
1011110001001100
0011000111101001
0011111101000011
0011110010111100
1011101001000011
0011011001010011
0011101100010011
0011110010001000
0011010100010111
0001110111111000
1011100000111110
1011101110001000
1011111011001110
1011101000001101
1011111010100001
0011000001100110
0011110000011010
0011100100011110
0011111100110000
1011000001000101
0011100001010101
1011101011101101
0011101100101111
0011110100011100
1011100011111000
0100000010001100
1011100101100101
0010110011111011
0011110100010101
0011110101100001
0011011011111100
0011010101111001
0011101000000000
1010111000111101
0011010110110111
0010110011000110
0010110011011111
1011111001110100
0011110100100100
1011110110110011
1100000001000111
0011111010111101
1011100100111010
0011110000100100
0100000110001001
1011000101101011
0011011000011100
0011010101110100
0011000010001101
1011111111101110
0011110011010101
1011000111011001
1011100101011111
0011101011000110
1011100000000100
1011011011110101
1011011011110101
0011101111001111
1011001000100000
1011100000001110
0010110100100010
1011010111010010
0011101001110010
1011000110011110
0011101010100100
1011100010001110
1011111000001111
1011100010000100
1100000001010111
1011101011001111
0011111011100111
1011100110101101
0011000001101110
0011101100110111
1011010111000011
1011100110001010
1011110000010010
1011100001111111
0011010110100101
0011100101100001
1011010110110100
1011110110110011
0011110001110000
0011100100010001
1011100110000111
0011100001000101
1010111010011110
0011110001010011
1011010000100000
1011011110100100
1011110101001100
1011011010111000
1011001101001111
0010110010010011
0011110001110001
1011011011000001
0011101001101000
1011100000111010
0011010001001110
1011111001111100
0011011001011010
0011100001010011
0011110100111111
0011110001110101
0011011100000010
1011110001110101
0011110000011111
1010010011010111
1010110111100000
0011001110101110
0011111111110100
0011110011100100
0011001011110110
0011101011011001
0010110101001101
0011101101110111
0011111101110110
1011010110100010
0011101000100101
0000010101100110
0011011010110101
0100000010110101
0011011110011111
1011011111100110
1010101001101110
0011011011110000
1011010010001100
1011000100110011
1010000111110001
1011001101110101
1011101000001010
0011011111000010
1010010010001000
1011100000010101
0010111001100111
1011100000101110
0011110110100010
0011101000111010
0011111011011101
1011110010100001
1100000010000111
1011110101100000
1011001101010000
1011111000000110
1011100000011000
0011010110110110
0011110001000100
0011101010110100
1011011001110101
0011110111000001
0011100001111000
0011100001001101
0011110010110101
0011101111001000
1011010100010011
1011100110011100
1011110000110011
0011011001011000
1011110110111011
0011000000010011
1011111010110010
1011101110011101
1010111110110111
1011110111111011
0011110100000111
0011100111011001
0010100010100010
1010111001111100
0011110011001111
1011110010100110
1011110101111111
0011010000000101
0011100011100101
1011010010110010
1011010001110000
1011010100000000
0011000010110011
1011110110011110
1011110101110101
0100000001011000
0011011000100100
1011010011011000
0011100111001010
1011110100001101
0011101100000001
0011001110000000
0011100110101110
1011101011011000
1011101101010100
1011100100010110
1100000111100110
1011011000001011
1011110101010000
0011000011000000
1011101110000000
0011001011101010
0010100001011100
0011001101011101
0011010001110100
1011011001011011
0011111100011101
1011100100111001
1100001000110011
1011110110010011
0011010011111100
0011101100011001
1011110010011011
1011110010110100
1011011111010001
1011011110101110
0011000100111011
1011111110100001
0001010101000100
1010110110110000
0010110010100000
1011111011001011
0011010010010011
0011110010010010
0011111010100101
0011100100000001
1011010011101000
0100000011001100
1011100000110000
1011110100010010
0011011000110111
1011111011110011
1010101001100101
1011100001011000
0011110110110110
0011110100010011
1011100100111001
1011110010010001
1011101010101010
0011100110001110
1011111001000010
0011110101001100
1011100000101010
0011110111101001
0011111110011111
1010100010011000
0011001000000011
1011110001110111
1011000100111011
1011110101101110
1010001101111100
1011110111011001
0011111101001001
0011101001000100
0011110101101001
0011100110111000
0011101101001101
0011010101110000
0011110101101110
0011110011001001
0011111011011111
1011110111100110
1011011101001000
1011011010011110
1011010111110100
0011110111101001
0011100101110101
1011100001100001
0100000010101011
1011111010010011
0011001100110110
1011011101111111
0011011101110001
1011111110010001
1011100011101010
0011100000101011
1011110001000101
1011101111110001
0011100001100011
1011011011101011
1100000100000110
0011101111111110
0011110010101010
0011101011110001
1011101011100100
0011001010100001
0011010101111000
0011100110101000
0011101101101101
0011010110010010
1011100000001010
0011101011000001
1100000011010110
0011111011111001
1011100100001111
0011100011111001
1011010100011001
1011100111110101
1011011010000111
1011101011111101
1011011001010010
1011101000001000
0011101001011111
1011010010111000
1011111001000110
1100000011110000
1011110100010111
0011010001101001
0011010010110011
0011010111100010
0011000010000010
1011101101110100
0010010100110011
1010010010101011
0011110111000001
1011101001000101
1011100101101011
1011110101101111
1011010001100111
0011110000110110
1011110110111001
0011110100011010
1011010000001000
0011100111111111
0011001100110100
1011101011011111
1011010101110001
1011100100101111
1011011111111111
1011110001001001
0011100001100010
0011010011101010
1011110010000000
0011111011001010
0011100101100110
0011111001010011
0011110110001011
0011110111010111
1011011101101010
1011011110001101
1011100100001101
1011100100010010
0011010110101101
1011101011011011
0011011110100011
0011110101111110
1011101001010010
0011100101010000
1011101011000110
0011010000001110
0011011101110011
0011000101111001
1011011001000000
0011111100010100
1011110010011110
1011000010110001
1011110110001101
1100000011011111
0011101011000000
0011101101001100
0011011000011101
0010100101101110
0011101110001111
1011100001110111
0011101111011101
0011110111100110
0011001000010000
0011110100111011
1011111010110000
0011110001001111
1011011011110110
0100000100110100
1011101100000100
1011110000000101
0011000001100110
0011101100111011
1011110100101001
1011000001011101
1010010011100001
1100000100010011
0011010101010100
0100000000000011
0010101001010001
0011111001111101
1011011011001111
0011110110001111
0011100111110111
1011110000100010
0011101010111100
0011101100000100
0011000110000011
1011110100011000
1011000000101001
0011110011100101
0011110001110111
0011100100100000
1011010111100010
0011111010111100
0011010110100010
1011011100001101
1011111000111010
0011110111001101
1011101000000000
1010100000000110
0011111100110000
0011110110011101
0011100000010111
1011100100100000
1011100110110000
0011111111111001
1010100100000111
1011101111010100
1011100001110110
1011100101011111
1011110110101011
0011100101110110
0011100111001100
1010110101011100
1011010101111011
0011000101011000
1011100111001101
1011100001001001
0011010011000111
1011000111001001
0011111001111011
0011110110000001
1011011101101000
0011101010111001
1100000101011011
0011101011101100
0011100010110111
0010111000100000
1011100110111100
0011001000001001
0011101010000101
0011100010111001
1011101110110010
0011110011010011
0011101111001110
0011100010011111
1011101000001010
1011010110100001
0011101101011111
1011010001111111
1011100111111100
0011011111010110
0011000001000111
0011111000010110
0011110000000010
0011011001111010
1011001101001111
0011101011100011
1011111101100100
0011111001010111
1011011010110000
0011010000100101
0011111110000011
1011110010110100
0011000100100100
0011101101001111
0011111110001010
1011010111111001
1011111011101011
0011000110101011
0011110010010111
1011110001101011
0011100001111000
0011110001101100
1011001000110110
0011111111100010
0011001000111001
1011100111100110
1011100000101011
1011000010110101
1011111111101100
1011100101011010
0011001110011111
1010100001111000
1011110010111100
1011110000001001
0011101010111010
0011110011101110
0011100011011110
1011010110000101
1011100100100100
1011100011111011
1011110110110100
1011011011011010
1011100011100010
0011100010101110
0011111010110110
1011010111000000
1011101100101001
1011010100001111
1010100011001000
1011101111000111
1011110011100011
1011111100001010
0011100010110001
1011111110011100
0011100010000011
0011110001010101
0011101101000001
1011110100011011
1011100100010101
1010100110110001
0011110000000000
1011100100100011
0011010011011001
0011111000011000
0011110000111100
0011011100101101
0011100000001111
0011011010000000
1011011010010111
1011110111100001
1010011100011010
0011001011011100
1011100001010010
1011110111000111
1100000010011000
1100000110101110
0011100110111011
1011110000000100
0011101011101010
1011111000101001
0011011111000111
1011000010001100
1011000101111010
0011110100010011
0011101010111001
0010010111000000
1011110000001000
0011110101111011
0011010000111101
1011000110101110
1010111011010111
0011100111110000
0011011101011101
0011110111101111
0011110011000011
0011100011010101
1011100100110110
1011110111011000
1011111111011101
1011111010010110
0011011101000110
1011100001001001
1011011110111101
1011010001111011
0011110100010011
1011110010111101
0011000000100001
0011110101111000
1011100011011001
1011100001001001
0011100000101110
1011010110000010
1011010000100101
1011110111110001
0010100111101111
1011100101011010
1011001100001111
0011011110011100
0011110101101010
0011011001010000
1100000111111101
0011000000001100
0011110111100100
1011111111010001
0011000110101000
1011111010000100
1011010011101111
1010111101100100
0100000101100001
1011000001000101
0011100101100100
1011110010100011
1011110110101110
0011001010011000
0011110100001111
1011111011101010
0011111111001010
1011101011100011
0011010111100010
0011000000101111
1011110001111010
0011011001110001
1011110111000000
1011101100011111
1011010010000010
0011010001101101
0011111000000010
0011010100111000
0011011010110111
1011110110000011
1011011101011101
1010110101000110
0011101011110111
1011110011001010
0011101111000001
0011101001011111
1011010010111111
1011100101100011
0011010100100100
0011111100100110
0010110111101001
1011110111101000
0011010001111110
0011100101111001
1011100100010110
1011001111001111
0011011101000000
0011111011110001
0011010100001010
0011111000000111
1010101111100011
1011110000110000
0011110100111011
1011110110111111
1011010101011100
0011101011011110
0011111000011101
0011101111101000
0011100101111000
1100000000100111
1011111111011001
0011001110010000
1011110001010101
0011100000011000
1011101111011011
1011100110101101
0010100010001111
0100000100111100
0011110111011110
0011010110011011
1010011111001101
0011010111001111
0011100011011010
1011111110010101
1100000011010011
1011010101111100
1010011100111001
1010110011101000
0010001000001111
0100000001111011
1011110111011110
1011100000011110
1011111111100010
1011100101011110
1011110110010110
1010101001111110
1011001010100000
1011100101010001
0100000101011110
1011101010100011
1011000010011011
0011011011111100
0011001000010111
0011100000100000
1010111110010011
0011110111000010
1011010110001101
0011110101100001
1011100100010000
0011011001010111
0011111000000001
0010110010101100
1011001001100110
1011101100000101
0011001100110011
1011010111100111
1010101100101010
1011101111011101
1011101001010111
0011110111101000
1011100011010011
0010110111000100
0011110010111010
1011000011010010
0011011000111001
1010110100010110
0011101100000101
0011111010001010
1011100110001011
1011110010010001
1011110001101000
0010101010100110
0011110000001000
0011010000001111
0011000000010110
1011101000101101
0011110010010000
0010010000110011
1011001001011111
0011100001100000
1011100011010100
1011101001000100
1011111011110110
0100000101010010
1011011010101100
1011111100000011
1011110000110100
0011011101001111
1011010001011111
0011101110101110
0011111100000001
1011101001101111
0011101010000000
1011110001000100
1011110100111100
1011010110100100
0011011000101010
0011100011110111
1011111111001001
1011101010101100
0010110001011010
0011110011111110
0100000100111111
1011011010100011
1011111101011010
0011111000100010
0010111100110100
1011110011010000
1011111110100101
1011100001001000
0010111110101101
0011101110000000
0011010110111100
0011101100001010
