Layer: encoder.1.0.block.0.weight
Parameters:
[1.016091   1.0230587  0.98262763 1.0038915  1.0580748  0.9973693
 1.0264728  1.011964   1.0097836  1.0004264  1.0069807  1.0386895
 1.0113709  1.0274562  1.033793   1.0314572  1.0733564  1.0083076
 0.9813345  1.026545   1.0170798  1.0316166  1.0424123  1.0060902
 1.0115886  1.0042484  1.0109813  1.0697297  0.9836747  1.0320042
 1.0239486  1.053118   0.99963576 1.0432817  1.0123152  1.0267644
 1.0512875  1.0078992  1.0205169  1.0160154  1.0131574  0.9689976
 1.0056347  1.0217441  1.0384539  1.0266758  0.99134004 1.0170672
 1.0294268  1.0620892  1.0289341  1.0332308  1.0093229  1.0363225
 1.0138222  1.0070786  1.0193037  1.0709796  1.0433985  1.0243038
 1.0261986  1.0820849  1.0373547  1.0362465  1.0668942  1.0126607
 1.0231639  0.9810409  1.0261556  1.0303893  1.0018048  1.0526028
 1.0156804  0.9959111  1.0095919  1.0216575  1.0841637  1.0062155
 1.0342098  1.0534006  1.0193496  0.9936526  1.0153592  1.0440997
 1.0102818  1.0113524  1.1300813  1.0216721  1.0186846  1.0269886
 0.9954866  1.0261714  1.0032552  0.9939719  1.0162671  1.0468892
 1.0048554  1.0180395  1.0042863  1.0169531  1.0243367  1.0135454
 1.0373685  1.0354323  1.0450385  1.0779727  1.048473   1.024022
 1.0112152  1.0181143  0.98755175 1.0594598  1.0301547  1.0117275
 1.0392244  1.0131928  1.0485133  1.001029   1.0135466  0.99089533
 1.0728256  1.011436   1.0321513  1.0227184  1.069472   1.0363755
 1.0500246  1.0234976  1.0362426  1.0109746  1.0441391  1.0424414
 0.9941581  1.0456235  1.0169357  1.0465088  1.0282083  1.0207855
 1.007451   1.0244365  1.0216944  1.0300586  1.0334113  1.0506982
 1.0406271  1.0414546  1.0364774  1.0162348  1.0004174  1.0511968
 1.0222361  1.0560167  1.0207963  1.002231   1.0628619  0.995702
 1.0324248  1.0551629  1.0035038  1.0345954  1.0232661  0.9961961
 1.0263808  1.0202134  1.041223   1.0258502  1.0063996  1.0738941
 1.0398304  0.9889241  1.038765   1.036837   1.0002377  0.9850314
 1.0198652  1.0287858  0.99360937 1.054895   1.0264736  1.0427818
 1.0553811  1.0232702  1.0739607  1.0567261  1.015929   0.99352515
 0.98233306 0.9784789  1.022335   1.0236422  1.0577109  1.0401114 ]

Layer: encoder.1.0.block.0.bias
Parameters:
[ 1.90743115e-02  2.06846278e-03 -1.60771552e-02  4.16295324e-03
 -3.41051840e-03 -4.02064575e-03  1.08032767e-02 -1.98820401e-02
 -7.95234926e-03 -1.36735067e-02  1.01761790e-02 -1.08759506e-02
  2.94085629e-02  2.60148570e-02 -1.11979563e-02 -8.05223826e-03
 -2.29169410e-02  7.91982934e-03 -3.02148964e-02 -1.91414822e-02
 -1.52959013e-02 -2.53093173e-03  5.24479849e-03 -2.57351957e-02
 -1.92604996e-02  6.68638106e-03 -3.98828555e-03 -2.36817519e-03
  1.08643128e-02  1.14095155e-02 -2.25474909e-02  3.04099917e-03
 -2.35807393e-02 -2.08897311e-02 -1.14952680e-02 -2.00542174e-02
  4.54771798e-03  6.66082604e-03 -3.66674946e-03  2.09260788e-02
 -2.78394166e-02  7.09076505e-03 -3.65784694e-03 -2.17654034e-02
  3.66493221e-03 -1.47325662e-03  1.64542962e-02 -1.24839125e-02
 -1.82364006e-02 -1.49665093e-02  1.02320882e-02  9.59594548e-03
 -8.74379463e-03 -1.62135158e-02  5.08499239e-03  1.11549431e-02
 -1.07523391e-03  2.27409694e-03 -2.20390186e-02 -1.91471428e-02
  2.11969987e-02 -1.24773418e-03 -8.22785404e-03 -3.51262838e-02
  5.99260617e-04  2.14977050e-03 -6.59266766e-03 -1.90380514e-02
  1.18205808e-02  3.21514085e-02 -3.98337701e-03 -7.06519280e-03
 -8.73833336e-03 -7.63658341e-03 -1.76191758e-02 -6.80025201e-03
 -1.87568050e-02 -1.75043158e-02  6.59356918e-03  2.09872983e-02
 -1.18284989e-02 -9.45424009e-03 -4.79395203e-02 -1.25743058e-02
  1.17069697e-02  1.41621903e-02 -8.12081993e-03 -8.16596672e-03
  8.06679204e-03 -1.83515009e-02 -2.31826939e-02 -2.95668337e-02
  2.52279583e-02  2.24820338e-02 -7.93615729e-03  3.18782660e-03
  8.68099649e-03 -1.55300815e-02  1.34715615e-02 -2.93333409e-03
  3.16862091e-02 -1.35304509e-02 -3.12701822e-03  8.43807310e-03
 -4.81108204e-03  3.64722796e-02  2.71024350e-02 -5.88638755e-03
 -1.39341280e-02 -1.72577071e-04  2.96848128e-03  1.23922927e-02
  3.41032259e-03 -1.71088043e-03  9.76977404e-04 -3.70448944e-03
  5.07958606e-03 -3.51476250e-03  1.14455577e-02  2.19638571e-02
  1.17305678e-03 -2.96560600e-02  9.16461740e-03  3.17802839e-02
 -2.02183542e-03 -2.37847883e-02 -1.52820749e-02 -2.00574310e-03
 -1.38297277e-02 -2.93847006e-02  6.06582128e-03 -9.90829244e-03
 -1.23748397e-02 -3.85394692e-02  1.49849765e-02  4.51067492e-04
  2.41754800e-02 -5.43049630e-03 -1.79814827e-02 -5.02346223e-03
 -8.12895771e-04  1.32638868e-02 -3.41223255e-02 -6.63946324e-04
 -1.73224043e-02 -1.76378991e-02  2.25136075e-02  3.11832055e-02
  9.32791550e-03 -1.22832377e-02 -5.19162090e-03  1.37559846e-02
 -6.46830956e-03  1.15268072e-02 -1.15202460e-02 -8.40348308e-04
  1.76699385e-02 -1.97971351e-02 -2.35031396e-02 -4.39493405e-03
 -4.11847346e-02  7.10692140e-04  1.60290543e-02  3.25899385e-02
  1.45383803e-02  2.89182849e-02 -2.92995386e-03  8.20223521e-03
  2.31430796e-03 -1.62887492e-03  3.10383979e-02 -7.45993311e-05
  1.86567791e-02 -6.97270851e-04 -2.92071700e-02  3.69106675e-03
 -2.51560491e-02 -9.75967664e-03 -7.42642162e-03  1.89073104e-02
 -1.35123199e-02  1.15292817e-02  1.80278998e-03  9.98497847e-03
  4.98294830e-03 -1.77464518e-03  2.76193898e-02 -8.08834098e-03
 -7.33632129e-03  1.20974267e-02 -1.13257878e-02 -9.51463822e-03]

Layer: encoder.1.0.block.1.queries_projection._packed_params._packed_params
Quantized Weights:
[[ 47   8  26 ...  39  30  -6]
 [-59  37   7 ...  46 -27  36]
 [-72  12  49 ...   7  35 -17]
 ...
 [ 20  15 -27 ... -26 -20  -4]
 [-30  24 -18 ... -50  26  30]
 [-29 -44 -63 ...  20   6 -31]]
Quantization Scale: 0.001556245144456625
Quantized Bias:
[ 0.10384835  0.03513186 -0.06622943  0.01600704  0.05626546  0.09790155
  0.03450548  0.05207866  0.02802768 -0.09620109  0.00213851 -0.00370215
 -0.00105435 -0.05101585 -0.02968592  0.02406934  0.00809736 -0.02220459
 -0.02861314  0.00173329 -0.04087622 -0.09320798  0.05959343  0.02511727
  0.09113877  0.03318703 -0.00777854  0.05711735  0.07239424 -0.0073468
  0.06896186 -0.03426445  0.04604937  0.08460531 -0.05627767  0.0748053
 -0.06180352  0.04355334 -0.01979025  0.03364528  0.03556879 -0.06363836
  0.06676329 -0.05823965  0.02889666 -0.08585285  0.04827402 -0.05244683
 -0.06265137 -0.03602448 -0.01027203  0.05562894 -0.05001663 -0.02798072
  0.01890697  0.0326803   0.05700054 -0.01385738 -0.00790426  0.05232209
 -0.0171872  -0.06229894 -0.04249241  0.05399128 -0.06402148 -0.054286
 -0.0232022  -0.07649194 -0.09034902  0.01064243 -0.02646696 -0.00685855
  0.12937804 -0.07708838  0.01722109 -0.08196272  0.05389734 -0.08035969
  0.06853721  0.0058442   0.06114952  0.01820554 -0.08187621  0.04442656
  0.08657719  0.01965652  0.03421735  0.01508615 -0.04947756  0.00860477
  0.00520419 -0.04238018 -0.05556703 -0.02278609 -0.06705585  0.02656135
 -0.0363351   0.05308485 -0.03583676  0.04820343  0.06683434 -0.00055758
  0.00714549 -0.03878708 -0.07395722 -0.02432451  0.02351913 -0.06014666
  0.06661788 -0.05706084 -0.04087772  0.07170533  0.01155819  0.03605949
 -0.05678419 -0.05362188 -0.03256255  0.02365228  0.07720182  0.01123743
 -0.09302438  0.02022221 -0.0509514  -0.10384159 -0.01777313  0.02547656
 -0.05770759  0.02267417  0.05539283 -0.00842413  0.0333157  -0.02364473
  0.0293426  -0.04982682  0.02524362 -0.03891965 -0.09307572  0.01518448
  0.04329199  0.01189022  0.0306075  -0.00228908  0.0259464   0.01719555
 -0.02909739  0.03801944  0.02490865 -0.03567144 -0.00018077 -0.03359297
 -0.02573613  0.01412262 -0.02072371  0.07032733  0.01653785 -0.05937538
 -0.05172634 -0.07166156 -0.00675148  0.04827897  0.05638378 -0.01315142
 -0.04809654 -0.02356877 -0.06153789 -0.03460508  0.0795867  -0.06648794
  0.06052987  0.06504229  0.03570511 -0.07940878 -0.068285    0.09577171
  0.07210983  0.02264292 -0.02443309  0.04434582  0.00038268 -0.02541181
  0.05851596 -0.03143377  0.00092664 -0.07432466 -0.00189772  0.0050868
 -0.08802982 -0.01022948  0.01001355 -0.01455032 -0.00415263 -0.01206356]

Layer: encoder.1.0.block.1.values_projection._packed_params._packed_params
Quantized Weights:
[[-44 -11  54 ...  -4  27 -11]
 [-42 -33  16 ...  -5 -57   3]
 [ 11 -19 -40 ... -20 -28   4]
 ...
 [-30 -19  29 ...  27  59  24]
 [ -9 -38  16 ... -41 -52 -14]
 [ 11  48 -11 ...   7  48   6]]
Quantization Scale: 0.0021801635157316923
Quantized Bias:
[-0.05577114 -0.01031627  0.07530471  0.06913061 -0.03150048  0.04557143
 -0.04412432 -0.02844543  0.06141638 -0.05034724  0.05946159  0.00291622
 -0.00715148  0.07901268 -0.0030334   0.02545648 -0.07033118  0.00973683
 -0.0613563  -0.00026373 -0.03321755 -0.06903931  0.02119876 -0.04345443
 -0.02848659  0.04704555  0.04377685  0.08264925  0.05006932 -0.04853063
  0.03092445 -0.0815905   0.05718331  0.0012882   0.04554375  0.03999497
  0.01756221  0.06398069 -0.0280046  -0.04903924  0.0065955  -0.05998324
 -0.00639244 -0.02559923 -0.04719745  0.01088092 -0.02131789  0.02611917
  0.06391453 -0.02602945 -0.00256212 -0.02343345  0.05376928  0.00541538
 -0.02917129  0.07515401 -0.072811    0.01376076  0.00443774 -0.04086478
  0.02727483 -0.04915816 -0.03939956  0.02351202 -0.05733783 -0.01365751
  0.06696072 -0.03970205  0.07049515 -0.03061474 -0.00756647 -0.06263623
 -0.02774108 -0.00601066  0.04960267  0.00654724  0.07044835 -0.01043943
  0.03122569 -0.06490852 -0.02569872  0.03291423  0.02778169 -0.00927338
  0.05176517  0.01299414 -0.07129016 -0.05852677 -0.04910282  0.01068451
 -0.00133338  0.06580552  0.00284745  0.03668014 -0.00448871  0.04701837
 -0.05067368  0.04062125 -0.00986474  0.05612105 -0.0363495  -0.04456379
 -0.0184444  -0.00803321 -0.05293782  0.05605851  0.04267948 -0.0382777
 -0.05771506 -0.04127798  0.0688293   0.02977791  0.06335375 -0.01435458
 -0.00653653 -0.03264882  0.0248925   0.05018976 -0.0120247  -0.01435559
  0.05238111 -0.03897761 -0.02470206  0.05037539 -0.04399991  0.01353422
 -0.03290111 -0.01379427  0.03092954 -0.0742779   0.06197518 -0.01945501
 -0.02882161 -0.02883552  0.01104627  0.06577311  0.03323508 -0.05715611
 -0.04174284 -0.01901959  0.04664815 -0.07281737 -0.01425654 -0.01611378
  0.02666361  0.00354671 -0.04470384  0.04081796 -0.04186474  0.06222514
 -0.03804495 -0.03369587 -0.07088654  0.01057503 -0.04229153 -0.06741165
  0.06211665 -0.06334382 -0.05443903 -0.02547605 -0.00146968  0.053989
 -0.07830171  0.04316611  0.00611847  0.03534134 -0.01692961 -0.02039351
  0.01937629 -0.04600822 -0.06611735 -0.02029317  0.04979815 -0.06856406
  0.06132976  0.03654789 -0.06176662  0.0672376   0.00735331  0.01734199
  0.02912296  0.0665736   0.00550619 -0.05348886  0.01779171  0.04929744
 -0.01660868  0.00380611 -0.04288734  0.01745179  0.04843478 -0.05311256]

Layer: encoder.1.0.block.1.keys_projection._packed_params._packed_params
Quantized Weights:
[[  2  11 -17 ... -13  13  18]
 [-55 -32   8 ... -24  37  12]
 [  8 -15  19 ... -36  -4  33]
 ...
 [ 49 -38 -27 ...  -2  10 -11]
 [ 14  27 -21 ... -37 -29  15]
 [-46 -11  21 ... -24 -28 -42]]
Quantization Scale: 0.001982869580388069
Quantized Bias:
[-0.03871104  0.01588719  0.07031896 -0.02849058 -0.06497171  0.00072971
 -0.0129317   0.06948239  0.0094466  -0.03033939  0.0425927   0.00027636
 -0.00423732 -0.00028674 -0.01281552  0.02523925  0.00748899  0.06640361
 -0.03290689  0.08604424 -0.00413686 -0.02652257 -0.01203881  0.02860047
 -0.06412216 -0.064948    0.04131334 -0.0056249  -0.01964944 -0.0689064
  0.04781819 -0.05701143  0.01369504  0.0706013  -0.07105449 -0.04912185
 -0.00515952  0.07100033 -0.05629749  0.01942884  0.01233627 -0.00767594
  0.03430899 -0.0160363  -0.02867357 -0.05154425  0.00323241 -0.06695221
 -0.01411769 -0.04927761 -0.04797523 -0.00700982  0.05146573  0.06511086
  0.08376146  0.07066045 -0.07280712  0.03782853 -0.04594376 -0.06313419
 -0.01835119 -0.02032129  0.05056553  0.03300421  0.0342662  -0.03251901
 -0.04060439  0.010625   -0.03211339 -0.0152822   0.05708913 -0.04258751
 -0.06532056  0.01721015 -0.02546378 -0.07420658  0.04529428 -0.04868618
 -0.06519315 -0.0257011  -0.0638643  -0.02026601  0.00801078 -0.05096917
 -0.01687301 -0.01241551  0.04601883  0.03977618 -0.01368449 -0.01667998
  0.02691507 -0.00280856 -0.0002688  -0.04929347 -0.06554662 -0.04054565
  0.00146067  0.06018336  0.03170773  0.04015763 -0.02550406  0.08150332
  0.03829682 -0.01715403  0.03298495  0.08041944  0.03630852 -0.02050094
  0.00983439  0.02999274 -0.03447268  0.05674066  0.03295427  0.02843099
  0.02223719 -0.01187003  0.06576895 -0.04085514  0.00088681  0.04618528
  0.03969335  0.05219194 -0.04866269 -0.04774754  0.05546862  0.04841736
 -0.05022351  0.00611202 -0.04448718 -0.04162169 -0.04183596  0.062014
  0.06720458  0.05583603  0.06460439 -0.06409344 -0.05745259 -0.03867303
  0.05256027  0.03014671  0.07464132 -0.00697964 -0.03332679 -0.04260995
 -0.05639048 -0.00651337  0.00684421  0.06333144 -0.03485228  0.03404112
  0.00228404 -0.05577566 -0.05630165  0.02328922 -0.01487193 -0.06987458
 -0.06397093 -0.01882269 -0.07341947  0.0625897  -0.04329453 -0.05265282
 -0.01242841  0.02548865 -0.04383916 -0.00483379  0.05081597  0.04653218
  0.00303031 -0.07029708 -0.01300851 -0.00370461  0.0380441   0.04795425
  0.03752652 -0.06375732  0.01794834  0.01848798  0.04538192 -0.03275133
  0.04701598  0.00158123  0.05234674 -0.0038552  -0.03240157 -0.04319508
  0.02196519 -0.01487199  0.03367838 -0.02432278 -0.041334    0.01182336]

Layer: encoder.1.0.block.1.final_projection._packed_params._packed_params
Quantized Weights:
[[ 15  28 -13 ...  27 -34  37]
 [  8  35 -22 ... -51 -27  41]
 [ 34  48  32 ... -14  34 -21]
 ...
 [ 40  17   8 ...  37  13  28]
 [ 30 -36 -10 ...  36 -26  24]
 [ -6  -2  37 ...   8  -4  47]]
Quantization Scale: 0.002262883121147752
Quantized Bias:
[ 0.07549123 -0.02522886 -0.00138595 -0.03676429 -0.06342691  0.0534337
 -0.0571724  -0.07234504  0.03260194 -0.05175218 -0.00870806 -0.03751511
 -0.01925694 -0.02369638 -0.03114015  0.0322253   0.03257291 -0.02255896
 -0.01066751  0.00423423 -0.017578    0.05353688  0.07078914 -0.02876136
 -0.02749603 -0.01072433 -0.02853289 -0.04755257 -0.02211864  0.0287916
  0.05348422 -0.03426636 -0.04737426 -0.00957533 -0.03875592  0.03545309
 -0.02228948  0.01130813 -0.03878492  0.01344995  0.03360134  0.05799519
  0.03212091  0.05164014  0.05905997  0.03426919 -0.05014931 -0.05594945
 -0.0476322   0.04988211  0.03964256  0.06026408 -0.01821532 -0.03957184
 -0.07196341 -0.01293803 -0.02871907 -0.01787837 -0.02513173 -0.0682655
  0.05673205 -0.00828349 -0.0515937   0.05373018  0.04907651 -0.05915705
 -0.00636545 -0.01220714  0.03994415  0.03157636 -0.08146564 -0.00924666
 -0.0268459  -0.0414551  -0.0112859  -0.02958221 -0.01681151 -0.04828176
  0.05641863 -0.00237368 -0.04511689 -0.06626274 -0.04187036  0.05813833
 -0.00712828  0.00184302 -0.00815477  0.04904611  0.04081824  0.05829689
  0.04851108 -0.03924095 -0.04569928  0.00660587  0.03285467  0.04042221
 -0.06836815  0.04321691  0.00107182 -0.05859316  0.04610128  0.05238502
  0.06116988 -0.0287472   0.0035071   0.05933134 -0.07315599  0.00136061
 -0.02932951  0.04687017 -0.0223618  -0.01498857 -0.02071071  0.01733034
  0.02337297  0.01504591 -0.02933089  0.04376851  0.01946616 -0.03972423
 -0.0264265  -0.03412581 -0.02055062  0.05679512  0.02071995 -0.01104776
  0.01888932  0.04488947 -0.00689303  0.00259134 -0.00169654  0.04925627
 -0.01611676  0.01677775 -0.0703008  -0.01954746  0.00638212 -0.0262558
  0.04298294  0.04099803  0.01308448  0.01208484 -0.03868661  0.07576739
 -0.01173814 -0.01876446 -0.02411013  0.05580672 -0.06412794 -0.03505667
  0.02996549 -0.04499252  0.04152324  0.0669061   0.01545998  0.04228808
 -0.03695077 -0.06518532  0.04397909  0.02572901 -0.05214643  0.06145165
  0.04524999  0.00369127  0.0466873   0.04697931 -0.03335727  0.07379747
  0.06576993 -0.0026956   0.06247917 -0.06729024  0.04002837  0.055084
  0.01353108 -0.03986082 -0.05080031  0.0541859  -0.041209    0.02642971
 -0.04802524  0.03444386  0.03516506 -0.08182263  0.00625661 -0.04966771
 -0.05885065 -0.00897115  0.01110257  0.02977914  0.01552876  0.05410701]

Layer: encoder.1.1.block.0.weight
Parameters:
[0.99368393 0.9714061  0.95925045 1.0000794  0.9654334  0.98821867
 1.0191983  1.026241   0.9957764  0.9648898  0.96156085 1.057216
 1.0028014  1.0241185  0.9844806  0.95211935 0.9181075  1.0075018
 0.9892329  0.99206865 0.9717275  0.99624574 0.96106756 0.9772585
 0.995315   0.99134445 1.0106949  0.9916741  1.0318348  0.93307817
 0.9890142  0.9947108  0.94097227 0.9994173  0.99318016 0.9795863
 0.99826586 0.96196777 1.0081884  1.0188135  0.9757441  1.0089201
 0.97304356 1.0271407  0.9558695  0.966295   0.99447227 0.9812063
 0.994738   1.0281456  0.96312404 0.98739296 0.96147484 0.9777623
 0.98657966 0.9811519  1.0167067  0.9658595  1.002747   1.0019554
 1.0021197  0.96534556 0.98681366 0.9906418  1.0174862  0.9818092
 1.0886087  0.97758985 0.9649597  1.0003139  0.9981467  0.93461263
 0.976586   1.0102574  1.0004507  0.97164613 0.9810191  0.9806571
 1.0277456  0.9829559  0.9631679  1.0074903  1.0407275  0.9862691
 0.98526025 0.9444707  0.9827626  0.9778435  0.97678506 0.9743789
 0.96845156 0.97718006 0.98512006 1.0019404  0.90030885 0.9584568
 0.9774031  1.0164789  0.9708127  1.0046881  1.0299991  0.9569755
 0.98275954 0.96022004 0.99929047 0.9665901  0.9801675  1.0011003
 0.99032223 1.0057487  1.006713   0.9950927  0.9702116  0.97238266
 0.97248715 0.97828555 1.0173268  0.9145113  0.98071814 0.9718762
 1.0214343  0.9697678  0.9520849  0.98682725 0.96481425 0.9991703
 0.97183937 1.0061451  0.98056036 0.9610218  0.96771634 0.95948315
 1.0386828  0.99731773 0.99217486 0.9529797  1.0113229  0.9895514
 0.9858008  0.98748255 0.9517957  1.0136873  0.9431617  0.9479955
 0.9464857  0.99081093 1.0352776  0.97741866 0.98806363 1.0239784
 0.972831   0.9582481  0.98575425 1.0119139  1.019394   0.97948813
 0.9401304  0.95963854 1.0129706  0.98247164 1.0256981  0.8708764
 0.9737877  0.9817789  0.95680666 1.0063934  0.9706972  1.0129893
 0.9885963  0.9546674  0.9714328  0.9900699  1.0310335  1.004909
 1.0026746  0.956962   0.97421676 0.9476972  1.0103924  0.97603834
 1.0082151  0.93998367 0.9876174  1.008865   0.9767454  0.97718287
 0.9798802  0.9865795  1.0074723  1.0061388  0.99229306 1.0012164 ]

Layer: encoder.1.1.block.0.bias
Parameters:
[ 0.03249272 -0.04062809 -0.05375309 -0.04916941 -0.02410527 -0.02271735
 -0.05400895  0.04647925 -0.04453769  0.0664921  -0.02775243  0.08314363
 -0.02071864 -0.02805512  0.05581635 -0.03499819 -0.02017897 -0.04555476
  0.02215611  0.03476728 -0.029231    0.06489269 -0.01982232 -0.04367811
  0.05174849 -0.03720722 -0.05762912 -0.01883678 -0.02569399 -0.01043659
 -0.03987814 -0.05888426  0.05347937  0.0002509  -0.04994258  0.01440793
 -0.02252209  0.00881971  0.00804635 -0.07450625  0.00796947 -0.00243678
 -0.0390521   0.05275484 -0.0358276  -0.03894132  0.07127722  0.08687071
  0.02879122 -0.03587471  0.05387603 -0.00020867  0.02510062 -0.02184829
 -0.06355553  0.05639784  0.04292403  0.03576344 -0.04851566 -0.00754531
 -0.07715186 -0.03412886  0.00616524 -0.00441528 -0.01139403 -0.05811941
 -0.03915228  0.0383877  -0.02179003 -0.0358695  -0.05287981  0.00064793
 -0.03940846 -0.02952185  0.06605818 -0.05994797  0.01391567  0.04413765
 -0.06287266 -0.06565929 -0.02821288 -0.03901505  0.06384028  0.03370318
 -0.01041235 -0.05019541  0.03828631  0.04978984 -0.05445947  0.06105727
 -0.06399233  0.00707075  0.01354284 -0.06780001 -0.0382631   0.01612194
  0.04773191 -0.07246964 -0.07841465 -0.02696996 -0.03774872  0.00099141
 -0.000723   -0.07838164  0.06782956  0.03752041 -0.02561287  0.06576598
  0.03374087 -0.03360382  0.03089255 -0.03930147 -0.03852898 -0.03141591
  0.00300123 -0.02112735  0.04079388 -0.02196667 -0.00947925 -0.01093889
  0.02638529 -0.04520218 -0.02691247  0.03316982  0.02583343 -0.01394048
  0.09884834  0.0327954   0.05693439 -0.01786216  0.02467946 -0.03755001
 -0.0472768  -0.02969749 -0.03838472  0.00158114 -0.07581402 -0.08012463
 -0.03719293 -0.02940188 -0.00588384 -0.02167796 -0.0426591   0.01409552
 -0.02771848  0.05376971 -0.01289977  0.04961644 -0.0295082   0.06249185
 -0.01407608 -0.05733655  0.0036477  -0.07430495  0.0385263  -0.05927119
  0.00061318 -0.04953752 -0.06333984 -0.08406038  0.07690585 -0.00806242
 -0.05897683 -0.06364859 -0.04607889 -0.04036206 -0.04946421  0.08269706
 -0.05629498  0.06500347 -0.00341769 -0.01887776 -0.02113901 -0.07219022
  0.04377125  0.07451923  0.03554074 -0.05286327 -0.01466017  0.02261769
 -0.03064446  0.05970653 -0.05957567  0.02454316 -0.03144838 -0.01949922
 -0.03004812 -0.04190793  0.01794179  0.03760585  0.03308918  0.07954297]

Layer: encoder.1.1.block.1.0._packed_params._packed_params
Quantized Weights:
[[ 13  13 -43 ...  -3  44 -28]
 [ 31  -2  39 ...  47   3  14]
 [-63 -37 -33 ... -47   1  -4]
 ...
 [-19  24  19 ...  35  47 -30]
 [-18   3 -19 ... -14  24  28]
 [ 52  12 -33 ... -54  21 -13]]
Quantization Scale: 0.0015259035862982273
Quantized Bias:
[-0.01815368  0.01712     0.03440892 -0.09061606 -0.09961139 -0.08308167
  0.02666028 -0.07958527 -0.09226739  0.00991433 -0.01945185 -0.07429831
 -0.02548229  0.00581179 -0.00512555 -0.04156739 -0.09029938  0.02270705
 -0.1088352  -0.03877232 -0.10396939  0.00151473 -0.11233352 -0.03988315
 -0.10110494  0.0355253  -0.07624964  0.01569609  0.01298    -0.05258881
 -0.01246868 -0.02750151 -0.08999481 -0.06287161 -0.06458282 -0.05277836
 -0.03852635 -0.06411219  0.00229307 -0.02382887 -0.05290801  0.04207221
 -0.06499986 -0.01858454 -0.03446585 -0.11079768 -0.0581118  -0.00572279
  0.01216554 -0.00560091  0.02977565 -0.01103306 -0.08832539  0.02163699
 -0.03702461 -0.05421116 -0.1011299  -0.00772663 -0.05087112 -0.01283452
 -0.10590437 -0.00822413 -0.01196302 -0.04376155 -0.04065683 -0.05612884
 -0.04151468 -0.07792    -0.03800714 -0.00114556 -0.00527229  0.01526338
 -0.02594302 -0.09881014 -0.08219229 -0.03214791 -0.00667864 -0.08044676
  0.01847613 -0.02852922 -0.1000917  -0.04437623 -0.10257186  0.02250654
  0.03153533 -0.04050568 -0.012673   -0.10222418 -0.01525065 -0.10190652
  0.01596476 -0.00233634 -0.0996388  -0.05397758 -0.12780838 -0.02431453
  0.01936049 -0.00732164  0.02294075 -0.03755298  0.00479688 -0.05974401
  0.01153169 -0.03419279  0.04442692  0.00176941  0.00456851 -0.03238964
 -0.06422056 -0.09800698 -0.03064111  0.04541892 -0.00300434  0.0268055
 -0.10156015 -0.03019859  0.02860223 -0.08009572 -0.01387593  0.03862145
 -0.10266604 -0.11742769 -0.02888158  0.01716008 -0.03182681 -0.03984698
  0.02540131 -0.08918631  0.02337748  0.04514457  0.00179897 -0.02543852
  0.00608728 -0.09018292 -0.03688408  0.03988147 -0.09336191  0.02809145
 -0.04453325 -0.072765   -0.05282416 -0.06721273 -0.05150334 -0.0004275
  0.00208206  0.03334015 -0.0552497   0.01604505  0.00097238  0.02246732
 -0.07870951 -0.06532258 -0.07980945 -0.01272493 -0.02371016 -0.0302507
  0.03261759 -0.01770304  0.01047946 -0.04572278 -0.00042181 -0.02336766
  0.04276469 -0.11048504 -0.03532725 -0.06156462 -0.02496798 -0.00037505
  0.00782577  0.00713213 -0.09659968 -0.05084975 -0.09421516 -0.11236212
 -0.02399175 -0.0266291  -0.02561546  0.04172643 -0.0783234   0.01765786
 -0.06117895  0.02919806  0.00929398 -0.03504522 -0.04994169 -0.04775556
 -0.06256887 -0.03471162 -0.09264517 -0.05184976 -0.03324748 -0.01911537
  0.0171806   0.02957437 -0.05041327  0.04487703 -0.04069558 -0.03670328
 -0.04960069 -0.04997644 -0.07713231  0.03957289 -0.01255449 -0.05063665
 -0.02603833  0.02264392 -0.11181679 -0.00796226 -0.08264556 -0.03328128
 -0.07399693  0.02022519 -0.03477078 -0.04342028 -0.00350442 -0.03652428
  0.03688098 -0.02601315 -0.04015875 -0.03374346  0.0344869  -0.0062523
 -0.05139278  0.00691118 -0.03186644  0.04029275 -0.01467887  0.00910029
  0.03822925 -0.05856721 -0.02702403 -0.01805053 -0.05178727 -0.0176068
 -0.03276317 -0.05912312  0.02550902 -0.03720326  0.00219063 -0.05920272
 -0.10691153 -0.09748686 -0.06009996  0.04985675 -0.01024226  0.00519015
 -0.02436781 -0.03658561 -0.07417434  0.01510315  0.00022108 -0.03574825
 -0.00271558  0.03159492 -0.05544502 -0.08557829 -0.06557542 -0.09125514
 -0.09486622 -0.062433   -0.05381288 -0.03388058 -0.02138715 -0.05494941
  0.03769858  0.04469554  0.01652799  0.03259932 -0.03129677 -0.04376682
 -0.03532643 -0.05532994  0.02982269 -0.02103366  0.0190061  -0.07470766
 -0.04350539 -0.04279774 -0.07992227  0.03366645 -0.02941048 -0.08592153
 -0.01822793 -0.11122586 -0.00157413 -0.06135029 -0.02801387  0.03216486
  0.00381485 -0.03270201 -0.01347399  0.02521879 -0.03516738 -0.0861633
 -0.02677284  0.02090169 -0.04843872 -0.07284484 -0.07949849 -0.07675896
 -0.07469469 -0.04269182 -0.04177035 -0.01955452 -0.06551538  0.02886632
 -0.09350396 -0.11089502  0.00751485 -0.10055289  0.00683338 -0.05934487
 -0.04041607 -0.11460389 -0.07089455 -0.05067918 -0.09656133 -0.01872342
 -0.00871267 -0.06407791 -0.07811605 -0.1311554  -0.04601933 -0.01323794
 -0.02815138 -0.07992197 -0.06726612 -0.00932025 -0.0161104  -0.0802686
 -0.04622038 -0.01706642 -0.01715942  0.00868333 -0.07756931 -0.01438758
  0.03113349 -0.00086188 -0.06349558  0.00595818  0.02422782 -0.02550354
 -0.07285079 -0.04328815  0.04207433 -0.0002278  -0.05570079  0.00061466
 -0.02805026 -0.00529164 -0.03687979  0.01596658 -0.01770789 -0.05243542
 -0.07114236 -0.05865236 -0.01091103  0.04544736 -0.02471532 -0.01237432
  0.00488458  0.01500696 -0.06069966 -0.10928894  0.02707531 -0.04256267
  0.01106785 -0.03434438 -0.04798957 -0.03816539 -0.05335321 -0.02600627
 -0.04359864 -0.00863007 -0.06756534  0.05618544 -0.04877904  0.01950331
 -0.02420131  0.03614733 -0.10557994 -0.04072989 -0.09886296 -0.01234136
 -0.03412497 -0.03709416 -0.11429589  0.0284535   0.01630729 -0.05171056
 -0.01998777 -0.04223702 -0.0031018   0.02504768 -0.04956793 -0.07692898
 -0.03931709 -0.0004659  -0.03686198 -0.05234857 -0.07549911 -0.00301052
 -0.1036341   0.02223367 -0.00762399 -0.0231044  -0.10018536 -0.00978135
 -0.04501686 -0.05677294 -0.01218511 -0.01164831  0.03973163 -0.09418979
 -0.10276164 -0.10565073 -0.0623538   0.01116603 -0.09694323 -0.01330368
 -0.08927976  0.00656067 -0.09445486 -0.0599739  -0.03870562 -0.00109719
  0.03426577  0.02714298 -0.08434943 -0.05320781 -0.03624782 -0.03250824
 -0.03314248  0.00632235 -0.04978508 -0.0335615  -0.06937355  0.02398254
 -0.07461504  0.01277677 -0.06101871  0.02605472 -0.07421211 -0.01730776
  0.043863   -0.02686616 -0.03399564 -0.0389993  -0.11636705  0.03408444
 -0.11638708 -0.07124146 -0.00641639 -0.00528163  0.03750135 -0.0034641
 -0.02237374 -0.08211721  0.02645761 -0.02911629  0.02271808  0.00225009
  0.01798049 -0.05075394  0.032192   -0.07089075  0.03165165 -0.05404154
 -0.00253304 -0.06222178  0.00675768  0.02447239 -0.03885287 -0.04935005
  0.0305697  -0.03149487  0.02176353  0.00346635 -0.10138418 -0.03889812
  0.02999036 -0.0602722   0.002057    0.0007029  -0.05306659  0.00098154
  0.03320387 -0.00279811 -0.07758309 -0.08425429  0.01433345  0.0174677
 -0.10925582 -0.08386833  0.00425212  0.01766762 -0.07962237 -0.09578621
  0.01436156 -0.06086171 -0.04393021 -0.03610123 -0.08078442 -0.03551369
 -0.00409462 -0.08605143 -0.05939437  0.03715598 -0.11204845 -0.03926239
 -0.10413695 -0.04353889  0.02075146 -0.08401196 -0.01157585 -0.08749597
 -0.01731778 -0.05307778 -0.03519226 -0.03821589 -0.08198799  0.02052224
  0.01680895  0.0252649  -0.06327974  0.01750218  0.00263794  0.02362642
  0.03318254 -0.02606594 -0.02084675 -0.08773789 -0.04595026 -0.087525
 -0.08477153  0.00400583  0.05125982 -0.0478414  -0.03965568 -0.03317355
  0.00373776 -0.03203775 -0.01016152 -0.01469684 -0.08397561 -0.06044056
 -0.03250299 -0.00081693  0.00843255 -0.01711821 -0.02285066  0.00488343
 -0.0603769  -0.11924779 -0.07271991  0.01162887  0.02100331  0.02710843
 -0.08988307  0.01941878 -0.06178863  0.03223168  0.00372932 -0.06475202
 -0.0759443  -0.04926806 -0.0695789  -0.08983869 -0.08955292 -0.10149799
  0.02519163 -0.0855923   0.00655053  0.02427568 -0.03954554 -0.02866852
  0.00516664 -0.00835873 -0.09562028 -0.01951575 -0.04096077  0.03641123
 -0.02484804 -0.00332356 -0.07717901 -0.00705324 -0.10031238 -0.04681365
 -0.05370368 -0.08528064 -0.03827696 -0.02768744  0.01048721 -0.03652151
 -0.07012006 -0.00859358 -0.07619038 -0.04240197 -0.02490003 -0.05151532
 -0.01785653  0.01369658 -0.09510098 -0.11392031  0.01353815 -0.00670988
  0.0266414   0.00046321 -0.00633891 -0.09950929  0.03638892 -0.07515223
  0.00107217  0.00786     0.00145467 -0.00554402 -0.03263286 -0.02951599
 -0.10130327 -0.01893946 -0.004343    0.03030259 -0.07235831 -0.0264214
 -0.05951094 -0.05445361 -0.05866151 -0.00702937 -0.07005206 -0.00420447
 -0.0709589  -0.0226698  -0.00467037 -0.00554681 -0.01792586 -0.04010223
 -0.10775542 -0.05901479 -0.06657849 -0.06699978 -0.06063516 -0.04188553
 -0.0920789  -0.03788031 -0.06111898 -0.03861795  0.0273572   0.02243512
 -0.06129076 -0.09328531 -0.02570785 -0.00530853 -0.00356403 -0.08317313
 -0.01953886 -0.07143915 -0.00420919  0.03009945 -0.05670602 -0.04436402
  0.04196689 -0.08299284 -0.00300092  0.01312809  0.03082921 -0.03037936
  0.03440847 -0.05135839 -0.05995058  0.00042172 -0.04443967 -0.07970701
 -0.00741667 -0.02296489 -0.03008407 -0.02615816 -0.04540673 -0.09680647
  0.02885727 -0.07718067  0.0271359   0.0353377  -0.04709749 -0.07977711
  0.02100841  0.03129689 -0.0394797  -0.06136588 -0.01475245 -0.02131813
 -0.09717312 -0.02919081 -0.09814835 -0.05342257  0.02400628 -0.08075193
 -0.10101654  0.00354406 -0.05140487 -0.0256782  -0.03134342 -0.09587856
 -0.01830237  0.01429064  0.03943336 -0.0288118  -0.10122985 -0.0667067
  0.04000013  0.00676099 -0.07388906  0.00691131 -0.0998249  -0.02327332
 -0.00549602 -0.06228802 -0.00380349 -0.07055427  0.00101486 -0.0921002
 -0.01949921 -0.02790643 -0.05575619 -0.01035661 -0.01758112 -0.07127152
 -0.00727397 -0.08892331 -0.09557329 -0.0845513  -0.01171636 -0.04300553
 -0.05808733 -0.08081474  0.03060697 -0.05084137 -0.0330792   0.01607332
 -0.069466   -0.06635924  0.0221037  -0.10791951 -0.08943686 -0.01230698
  0.02031655  0.04040008  0.02903596 -0.10448801 -0.02261587 -0.02882911
 -0.01925265 -0.02352413 -0.08077833 -0.10361317 -0.03823287 -0.08020171
 -0.1033989   0.00080766  0.01444476  0.00251243 -0.04774261  0.03936932
 -0.07262418 -0.09196761 -0.00722651 -0.03387038 -0.01465041 -0.01312871]

Layer: encoder.1.1.block.1.2._packed_params._packed_params
Quantized Weights:
[[  4  26  -2 ...  13  17  15]
 [ 13  65  59 ...  -4  20 -13]
 [-27  -8 -77 ... -18 -32 -20]
 ...
 [  9 -31  11 ...  10  16  11]
 [  2  -4  18 ... -11 -16  -1]
 [ 53 -14 -27 ...  -2  25 -34]]
Quantization Scale: 0.0010019170586019754
Quantized Bias:
[-0.02570039  0.01741925  0.02368656 -0.00333861 -0.02393842  0.00925037
  0.01009216 -0.00199195  0.02205971 -0.0300596   0.02605105  0.01885317
  0.01658957 -0.03402688 -0.04077565 -0.01763076 -0.0382938  -0.00837124
  0.01961117 -0.00048735  0.02368881 -0.00717742  0.0141393   0.01326118
 -0.02824023  0.01238983 -0.00303789  0.02852492  0.01456033 -0.03114001
  0.00675289  0.00352311 -0.02156915 -0.04711094  0.00454932 -0.06489694
  0.02841688 -0.02164783 -0.00568427  0.03626923  0.01412621 -0.01733653
 -0.00147895  0.0083624   0.02158194 -0.01069192 -0.02876944  0.01834138
 -0.0137374  -0.01243105  0.02790406 -0.03478218 -0.02250373  0.04660381
  0.02137788  0.03399139  0.01302109 -0.0329171   0.02511105  0.02521491
  0.02697749 -0.03581838 -0.01126951  0.02405285  0.01188016 -0.00845072
  0.03437578 -0.03502646 -0.01485736  0.01221807 -0.02939724  0.02537568
 -0.00688433  0.00949367  0.00196981 -0.02715101  0.02878889  0.00797189
 -0.02136559  0.00817632  0.01858984  0.01523622 -0.05335087  0.03172276
  0.01964753  0.03281992 -0.05114314  0.00940918 -0.01910033 -0.01842361
  0.01388555  0.00066139 -0.00965638 -0.01937269  0.01624496  0.00825448
 -0.02233199  0.00196602  0.01254187 -0.01051659 -0.00886575  0.02628654
  0.01732208 -0.02994912  0.00915779  0.02504837 -0.00933935  0.00404109
 -0.03352443 -0.00359713  0.0228823   0.0218333   0.03432281  0.01474487
  0.02081482  0.02319634 -0.03242349 -0.0120566   0.00965923 -0.00567853
  0.00162349  0.01433276 -0.02613926 -0.00808787 -0.0068773  -0.01823521
 -0.03651631 -0.03504844 -0.03275288  0.02220656  0.02980976 -0.01448504
  0.03049162  0.0101794   0.01979601  0.00513544  0.02725007 -0.00379547
  0.01175126  0.01137235  0.03131504  0.00786295  0.00283629 -0.01051304
  0.03532785  0.00574265  0.03053916 -0.05064408 -0.02666733 -0.05000671
 -0.01051709 -0.0098639  -0.02450614 -0.02301248  0.02832936 -0.0225601
 -0.0232752   0.02201393 -0.03202898  0.02240937 -0.02689365  0.00011377
 -0.02634818  0.00112416  0.00120986  0.04761794  0.00475562  0.01865381
  0.04443464  0.00887483  0.02925939 -0.03512177  0.00089211  0.03413806
 -0.01575912  0.02293299 -0.02441713  0.00023745 -0.0423234  -0.00812207
  0.0082065  -0.01085761  0.00485167 -0.02735721  0.03307571  0.03831431
 -0.02903851 -0.02269759 -0.05122684 -0.01517432 -0.00911428 -0.03680051]

