Layer: encoder.3.0.block.0.weight
Parameters:
[1.081384   1.0764581  1.0621605  1.0328785  1.1102339  1.0745764
 1.0925218  1.0411298  1.1039736  1.0981183  1.0949641  1.0356377
 1.0815212  1.112021   1.0693086  1.0972848  1.1254005  1.0787201
 1.0591927  1.060602   1.0991949  1.0614951  0.99022865 1.0857714
 1.0415455  1.1418737  1.0078847  1.093406   1.109997   1.0668058
 1.0657996  1.1220359  1.08218    1.0712003  1.0245454  1.0676671
 1.0572976  1.0458581  1.0717161  1.042849   1.045067   1.0980892
 1.0555054  1.0663192  1.062495   1.1186808  1.103306   1.0719887
 1.0314053  1.0785769  1.0697315  1.0485085  1.0711104  1.0634739
 1.0471421  1.0871613  1.0857037  1.0699338  1.097941   1.0730351
 1.0467815  1.0317178  1.0491759  1.0515873  1.0896913  1.080398
 1.0887928  1.0283757  1.0743611  1.1143612  1.0220609  1.0429014
 1.094298   1.0631912  1.0698965  1.0653905  1.0951093  0.99767363
 1.0543745  1.098166   1.0271448  1.1077696  1.0239661  1.0727606
 1.0496217  1.0857649  1.1355858  1.0749022  1.0587914  1.0831867
 1.0827509  1.080462   1.1402577  1.0708902  1.1036617  1.0705848
 1.0641981  1.0828041  1.0811906  1.0568967  1.0599896  1.0736928
 1.0907853  1.0723643  1.0601009  1.0410132  1.1174802  1.0310361
 1.0576038  1.0817376  1.0749565  1.0618343  1.043837   1.0587531
 1.0754535  1.0792569  1.0517714  1.0599073  1.0508915  1.0688508
 1.0683439  1.0697448  1.1012427  1.0485291  1.1045626  1.0696758
 1.0421993  1.1181668  1.0876572  1.03093    1.0545354  1.0815978
 1.1037124  1.0711085  1.102144   1.1056234  1.042218   1.06682
 1.0742868  1.0884318  1.0686713  1.0999789  1.0329084  1.0914143
 1.0498785  1.0940467  1.1198448  1.0761619  1.0780096  1.0616336
 1.0399703  1.0842133  1.0715785  1.0918349  1.0974668  1.0989423
 1.0515329  1.0576292  1.0828288  1.0620571  1.0995843  1.0447958
 1.0778344  1.091873   1.067555   1.0588526  1.072904   1.090927
 1.0649742  1.0992733  1.0963266  1.0631515  1.0513599  1.068282
 1.094587   1.1233611  1.0735067  1.10943    1.0513617  1.0855384
 1.037839   1.0669378  1.0822599  1.0402972  1.033611   1.0844415
 1.0274167  1.0631404  1.0846397  1.0818052  1.1046507  1.0734273 ]

Layer: encoder.3.0.block.0.bias
Parameters:
[-1.01344595e-02 -2.55282409e-02 -4.44217440e-05  1.14214551e-02
 -4.35051881e-03  8.30175076e-03  1.17758056e-02 -2.42055357e-02
  1.11843534e-02 -4.44724830e-03 -7.82096200e-03 -6.75660698e-03
  2.85188388e-03 -6.27275510e-03 -2.50724014e-02  1.08414954e-02
 -1.63373146e-02 -6.25780644e-03  9.73078946e-04  2.81099346e-04
  5.37424050e-02 -1.52275935e-02  3.32879163e-02 -1.75233539e-02
  1.34126591e-02  3.26208817e-03  1.99488346e-02  1.80617962e-02
 -2.82811490e-03 -1.80557591e-03  1.53852545e-03 -9.04126279e-03
 -3.62561457e-02 -1.21114282e-02  7.19710113e-03  5.13442000e-03
  1.43472394e-02  1.14173058e-03  1.17375301e-02  2.69590579e-02
  2.98892061e-04  1.02878474e-02  1.64339133e-02 -7.62643712e-03
 -2.34113615e-02  2.13138703e-02  2.06899317e-03 -1.12227211e-02
 -1.89207271e-02  1.55139184e-02  1.56587139e-02  2.00601276e-02
 -1.26570445e-02  8.09637271e-03  1.53730912e-02  1.36877773e-02
  1.74584810e-03  5.06225391e-04 -1.47219216e-02  1.81943122e-02
  1.01356879e-02  2.21005715e-02  9.55534997e-05 -8.68991949e-04
  5.17720915e-03  2.92266142e-02 -9.96828452e-03 -1.91005003e-02
 -2.77397688e-03  4.43982612e-03 -1.56278300e-04 -8.28281790e-03
  3.40735214e-03  1.11694150e-02  1.37832221e-02  5.80005487e-03
 -1.91672035e-02 -3.62499654e-02  1.76819228e-02 -6.91221841e-03
  1.69956696e-03  1.42309470e-02 -3.58981267e-02  9.27639427e-04
  1.46631058e-03  1.31847151e-02 -7.56736798e-03  1.10937785e-02
  1.46949882e-04 -7.08763162e-03  2.03984906e-03 -4.57559014e-03
  8.22863169e-03  4.50477889e-03  2.41315365e-02 -2.00486481e-02
 -3.90765769e-03  1.35815423e-02  1.29413968e-02  4.38351324e-03
 -1.16719725e-03  3.73913645e-04  1.62181556e-02  1.22838719e-02
 -7.67798675e-03  4.56216233e-03 -2.12233933e-03 -1.30819846e-02
 -1.41541827e-02  1.32185477e-03 -3.04464623e-03  9.11526382e-03
  8.74420721e-03  1.28317755e-02  1.98656842e-02 -2.84009217e-03
 -1.39439609e-02 -6.41452335e-03  2.64559574e-02 -1.02335485e-02
  6.43595471e-04 -9.52100195e-03 -1.21364100e-02 -1.41955428e-02
 -6.37457334e-03  9.85753071e-03 -1.73993036e-02  7.25796493e-03
  6.37948455e-04 -1.07792197e-02 -2.59684864e-02 -1.79969948e-02
 -1.43481474e-02  1.52193177e-02  1.53130782e-03  1.12173734e-02
 -9.16809682e-03  1.22802821e-03  1.54341885e-03  1.75281689e-02
 -7.68989930e-03  2.93233362e-03  5.34995925e-03  1.00233816e-02
  4.57271654e-03 -1.43779698e-03 -6.95226062e-03  1.14346519e-02
  1.80954281e-02 -1.36724720e-02 -7.93459825e-03  2.54984270e-03
  6.50802162e-04  6.57589335e-05 -4.00681561e-03 -5.70615660e-03
 -2.09103115e-02 -1.23637076e-03  7.82519579e-04 -1.12975901e-02
 -1.58536807e-02  2.64608748e-02  1.61400288e-02  1.75316092e-02
  4.57115751e-03 -5.90156484e-03 -1.55562386e-02 -7.02991989e-03
  1.34809492e-02 -4.35103178e-02  1.44259688e-02  1.41757820e-02
  2.57549100e-02  2.54104342e-02  4.25165659e-03 -1.65663641e-02
 -9.70208645e-03  1.84970349e-02  7.85817392e-03  2.03999504e-02
 -7.44218891e-03 -2.87744049e-02 -3.17560807e-02 -3.37948911e-02
  1.27433892e-02  1.30576892e-02  3.48458141e-02  1.63424592e-02
  1.80743728e-02  7.42221344e-03 -1.22176704e-03 -6.34746579e-03]

Layer: encoder.3.0.block.1.queries_projection._packed_params._packed_params
Quantized Weights:
[[ -5  20   0 ...  -3   3  -1]
 [ 47  -5  10 ... -16 -12  46]
 [ 28  32 -14 ...  40 -43  36]
 ...
 [ 20  26 -14 ... -53  -4 -46]
 [ 29 -38  -6 ... -40  -4 -51]
 [ 36  30 -13 ...  33  -6  -6]]
Quantization Scale: 0.0018541408935561776
Quantized Bias:
[-0.03593753  0.05198003  0.0129736   0.01917288 -0.01285429 -0.02170032
  0.00277541 -0.03540062 -0.08018308 -0.053501    0.04988979  0.03939529
  0.04551063  0.04887347 -0.01264525  0.03507987  0.00914183  0.03987971
  0.02315673  0.01723881  0.04680642 -0.05434492 -0.11068031  0.02954838
 -0.00980007  0.0669758  -0.03615493 -0.07506023  0.00465588 -0.01231288
 -0.03583063 -0.0097388  -0.04554224 -0.0307123  -0.0468618   0.06349403
 -0.03615702 -0.03345944  0.03910828 -0.02966201 -0.01314727 -0.03340468
 -0.03606449 -0.06643271  0.09458631 -0.0251573   0.03857501 -0.05180831
  0.06194517  0.02904014 -0.05544823  0.05127338  0.03324826 -0.03219845
  0.05072683 -0.03462832 -0.00900743  0.0038732   0.00876583  0.01440927
 -0.00288466  0.00937647 -0.05046303  0.01659851 -0.01472156 -0.01857146
 -0.01594956  0.07481227 -0.03772721 -0.07079916  0.06186302 -0.06600374
 -0.04253411  0.05489065 -0.04991441 -0.03893523  0.01123581 -0.0458674
 -0.0415204  -0.07700125  0.01935506  0.06403194 -0.00818227 -0.02909597
  0.01510709 -0.02861506  0.05410061 -0.04179056  0.08722349 -0.03046419
 -0.00078395 -0.04074902 -0.05269513  0.01678978 -0.04937559 -0.04038738
  0.03836064 -0.03172375  0.0767517  -0.06574516  0.03858437  0.02104314
  0.05108786 -0.0576108   0.02390931  0.04467919  0.0085253   0.01665075
  0.04120795  0.06344888 -0.01735321  0.00346212  0.09662801 -0.02972525
 -0.03335557 -0.030077   -0.01722911  0.0815133  -0.03038876  0.03245913
  0.0708559  -0.08212905 -0.03370492  0.05281324  0.04024652  0.01177651
  0.04673572  0.0141911   0.03755653  0.06328034  0.00580153 -0.03445719
  0.01177117 -0.02825313 -0.01530732  0.01216334 -0.04819487 -0.00074493
  0.05296742  0.02294867  0.00175478  0.04110399  0.0331016  -0.00915276
 -0.02569648 -0.0283662  -0.07180682 -0.05653583 -0.02486066  0.01356341
 -0.07587445  0.0468925   0.00458781 -0.01745238  0.01463212 -0.03614725
 -0.04623378  0.00948483  0.08635737  0.03664951  0.06153037 -0.03194487
  0.01336526  0.01779668  0.02885726 -0.02196305  0.0906107   0.08476207
  0.05773767  0.04911815 -0.07656147  0.02605604 -0.02753903 -0.01893228
  0.02342584  0.04642431 -0.01942366  0.08257703 -0.0441859  -0.06032087
 -0.0507552   0.03284453  0.06429679  0.069382   -0.02283459 -0.08219134
 -0.03003811  0.0810898   0.02119461  0.06442221  0.03245296 -0.03281977]

Layer: encoder.3.0.block.1.values_projection._packed_params._packed_params
Quantized Weights:
[[-11 -17 -26 ...  -6 -12  56]
 [ 37 -22  31 ... -29  10 -15]
 [ -3 -26 -37 ...  23  24  40]
 ...
 [ -1 -46  40 ... -16 -40   3]
 [  5  69  46 ...  14 -13   3]
 [  4   9  12 ...  63  46  -5]]
Quantization Scale: 0.0021776140201836824
Quantized Bias:
[-1.86265595e-02 -4.38775644e-02  3.03861350e-02 -9.07711778e-03
  6.49971291e-02  1.39085427e-02  4.21089046e-02 -4.61083688e-02
 -6.37453422e-02  6.85989112e-02 -1.91224460e-02  4.69038710e-02
 -1.70084853e-02 -5.47636971e-02 -4.55317982e-02  7.54261613e-02
  4.63189073e-02 -5.58504425e-02  5.61440699e-02  6.44523725e-02
 -3.72356102e-02 -3.32459509e-02  5.19064851e-02 -1.66799668e-02
 -2.24162135e-02  7.64882267e-02  6.15751185e-03  1.12363778e-03
 -4.29003239e-02  1.63539164e-02  3.86707932e-02  2.89493147e-02
  4.78202989e-03  3.61819789e-02 -2.25757360e-02 -7.43212327e-02
 -5.13515584e-02 -4.40834910e-02 -6.41621575e-02 -2.69575249e-02
  4.49760258e-02 -5.66473976e-02  6.36121929e-02 -4.04499210e-02
 -1.57761533e-05  9.96218342e-03 -6.40983656e-02  1.94132570e-02
  3.32246833e-02  4.12507802e-02 -4.73722592e-02 -1.17668277e-02
  4.88443952e-03 -5.63324168e-02 -6.49228171e-02  1.17261684e-03
 -5.95926754e-02 -2.66273078e-02 -5.74428923e-02 -3.07004843e-02
 -1.50028225e-02 -5.38391061e-02  4.46225554e-02  5.59286475e-02
 -5.41941263e-02 -3.01953927e-02 -4.35611838e-03  5.18389605e-02
  3.99291776e-02 -7.50116026e-03 -5.67170680e-02  6.18609563e-02
  3.75361368e-02 -1.32859033e-02 -1.44616738e-02 -3.02074943e-02
  7.56153986e-02 -2.98394375e-02  3.72688919e-02 -3.30046378e-02
  6.55942857e-02 -4.84259054e-02  5.74810617e-02 -4.34559993e-02
 -4.76300530e-02  5.83601668e-02 -4.51124385e-02  1.77415740e-02
  3.08694243e-02  3.80558297e-02 -4.68535945e-02  3.80806848e-02
  7.15731271e-03 -5.87961748e-02 -9.09188110e-03 -6.72179013e-02
  3.39458510e-02 -7.70456716e-02  4.93348278e-02 -2.15961207e-02
 -3.32292281e-02  3.78164612e-02  3.31575684e-02 -1.69591811e-02
 -2.82028057e-02  3.56206894e-02 -2.48401035e-02 -1.21975038e-02
 -1.45814065e-02 -3.04455515e-02 -2.22778954e-02 -3.45679075e-02
 -6.80318624e-02  4.48897965e-02 -1.92353185e-02  4.39334242e-03
  7.13210180e-02 -6.78245500e-02 -6.61210567e-02 -1.74261220e-02
  5.06585874e-02 -3.75768691e-02 -4.38969396e-02  5.09751923e-02
  4.43341769e-02 -4.37685987e-03  2.22812649e-02 -6.00681789e-02
 -6.26047403e-02  8.99257232e-03  1.09275931e-03  5.04412800e-02
  2.34526419e-03  2.56386735e-02 -2.49200128e-02  5.75494952e-02
  3.25893611e-02 -5.53140678e-02  5.24788955e-03 -4.95232493e-02
 -3.27168405e-02 -2.51941755e-02 -3.52265239e-02  6.76981406e-03
  1.60508212e-02  3.18401828e-02 -5.69880977e-02  3.28055280e-03
 -3.20782438e-02  2.05405466e-02  6.68480545e-02 -3.54392044e-02
 -4.22548503e-02 -6.11236095e-02 -1.53110931e-02 -4.30438407e-02
  4.43494134e-02  4.13497090e-02  3.82792316e-02 -2.27753688e-02
  3.47408839e-02 -2.95980684e-02  5.05900607e-02 -1.44633548e-02
 -2.44431105e-02  2.19535884e-02  6.73806816e-02 -3.37913781e-02
 -5.01994900e-02  6.91009164e-02 -7.41683319e-02 -1.62026640e-02
 -5.16205691e-02 -2.18464267e-02  2.07846444e-02  5.95652424e-02
 -7.13962018e-02 -2.61877049e-02 -5.72245903e-02 -2.38648169e-02
 -4.13762592e-02 -6.04270287e-02  1.22537687e-02  3.83551605e-02
 -5.58491088e-02 -3.36832274e-03 -3.62239480e-02  2.79245805e-02
 -3.95546965e-02  5.45455180e-02  2.70054173e-02 -1.25653856e-02]

Layer: encoder.3.0.block.1.keys_projection._packed_params._packed_params
Quantized Weights:
[[ 33  13 -24 ... -72   6  -7]
 [-24  27 -17 ...  41 -34 -12]
 [ 16  28   7 ...   4  32   2]
 ...
 [ 18  -4  10 ...  32 -29 -12]
 [ 14  45 -24 ... -30 -55  -6]
 [-16  62 -42 ... -50 -65  -2]]
Quantization Scale: 0.0018226621905341744
Quantized Bias:
[ 0.01676428 -0.05581288  0.02129779  0.04136136 -0.05826081  0.01387927
  0.0314032  -0.04703723  0.05515818 -0.06219152  0.00934698  0.006177
 -0.00723355  0.01522556 -0.00010423  0.02335958 -0.06671927 -0.02654032
 -0.05465927 -0.06985453 -0.03789721 -0.05783228  0.02602666  0.07338236
  0.01887221  0.02411401 -0.03697707  0.07354694  0.04071559  0.00315477
 -0.01327722  0.04312341 -0.01066531  0.00415356  0.01845391 -0.04118161
 -0.01137249 -0.05942103  0.07176784 -0.03396015  0.01073002  0.01632911
 -0.01020087 -0.00721239  0.0440556   0.06279889  0.04831219 -0.02068328
 -0.02539414 -0.06030784  0.00247225 -0.00761072 -0.04610414  0.02794905
 -0.05199939 -0.03385184 -0.03835283 -0.04145957 -0.01326685  0.06113751
 -0.06230399 -0.00770311  0.01574057  0.03826544 -0.0067701  -0.00062888
  0.0014174  -0.00535057 -0.0155662  -0.04690352 -0.01966227  0.03521112
 -0.06924495  0.04225048 -0.05153808 -0.02965484  0.01690918 -0.05029031
 -0.04859053  0.01921959 -0.02012327  0.0002081  -0.02571205 -0.03574414
  0.03459658  0.01964113 -0.01954468  0.06911768 -0.02697927  0.05075089
  0.02779944 -0.06979906  0.02664125 -0.00606179  0.01704299  0.0100198
  0.00463838  0.03114213 -0.01660362 -0.04948875 -0.07628739  0.06458067
  0.0171279   0.02279255 -0.05244914 -0.04850125 -0.02714501 -0.03746212
  0.06905435  0.01306319 -0.00115529  0.0075742   0.01717526 -0.0607402
  0.0396794   0.01525505  0.00883856 -0.03573461 -0.03056408 -0.04494625
  0.06628194  0.01193388  0.06957108  0.03438126 -0.05906514  0.01561472
  0.0198461   0.07232127  0.03796352  0.04368241 -0.02542115 -0.04778967
 -0.05870602 -0.011242    0.00507285 -0.04724184  0.05198137  0.01891296
 -0.0246008  -0.04274229  0.01390031  0.03671556  0.0468729   0.06102423
  0.03360516 -0.06861528  0.09611855 -0.0319654   0.01735265  0.0418746
  0.06088062 -0.03543139  0.01561371 -0.06507678  0.01941872  0.0004315
 -0.03536541  0.0555026  -0.04908039  0.02624977  0.01155713  0.00062007
 -0.00230339  0.05724742 -0.07932376 -0.00785622 -0.03429401 -0.07319668
  0.00697465 -0.0495196  -0.05108237  0.00665776 -0.04452522 -0.03667503
  0.06482881 -0.05985164  0.06173908  0.02400667  0.03258058 -0.04103579
  0.00591909 -0.05468323 -0.0079423   0.01528561  0.04172991  0.05924389
  0.07227843 -0.00019644 -0.03407158  0.04352644 -0.02964594 -0.01064282]

Layer: encoder.3.0.block.1.final_projection._packed_params._packed_params
Quantized Weights:
[[  3  86 -15 ...  -2  38  45]
 [ 10  43  16 ...  46  34 -10]
 [ 26 -46  -4 ... -13  17 -17]
 ...
 [ 36  -9  47 ... -14 -27 -26]
 [ 41 -30  18 ... -37  64  22]
 [ 41  28  -2 ...  18 -45  -6]]
Quantization Scale: 0.002359129721298814
Quantized Bias:
[-0.07248046 -0.03063883  0.03819407 -0.04501191 -0.02478043  0.05543891
  0.02711158  0.01270259  0.04899242 -0.05209106  0.0511631  -0.00818046
 -0.00567976  0.06573013 -0.04109203 -0.00071191 -0.02448461 -0.0377074
  0.01114147  0.01903119  0.06872537 -0.07313497 -0.02014128  0.00637395
 -0.00291773 -0.06237646  0.05084274 -0.05916108  0.0223018   0.07770573
  0.05883592 -0.06847678 -0.05475975 -0.00960488 -0.05501273  0.04398017
 -0.0404602  -0.05473404  0.04939233  0.01160254 -0.02233315  0.05112978
 -0.00495762 -0.04909808 -0.02958797  0.03419414 -0.05984866 -0.00084192
 -0.01653623 -0.05431864  0.0545999   0.05632749 -0.03758764 -0.04605847
 -0.00273912  0.05479663 -0.08792321 -0.02590434 -0.00284928  0.07128405
  0.03697014  0.00553156 -0.03545753 -0.07749649 -0.04981127  0.03205167
 -0.06258947  0.0300822   0.03816815  0.03029421 -0.06295221 -0.00918179
 -0.04451698  0.04096578 -0.03996267  0.05506835 -0.02665737 -0.0817967
 -0.00376195  0.06159831  0.06342412 -0.06300801  0.03107813 -0.0835257
  0.05522718  0.02377969 -0.09526575 -0.04807575 -0.02944071 -0.07767463
 -0.04379535 -0.01943257 -0.0772567   0.03655018 -0.01494182 -0.05519067
 -0.03627149 -0.06689483 -0.02046975  0.03106173  0.02498045  0.08179223
  0.08468986 -0.0124927   0.03487231 -0.00808677  0.03873007 -0.02813255
  0.02266282  0.06459375  0.02920333  0.03868201 -0.00591334  0.07715591
 -0.01219276  0.03827254  0.0393808  -0.04383682 -0.02824339 -0.03971518
 -0.00409899 -0.06795713  0.01830848 -0.05524194 -0.01108497 -0.02583061
 -0.00463723  0.035735   -0.07495959 -0.06302717 -0.06290141 -0.02176971
 -0.04251892  0.04215027 -0.04373628  0.02509406  0.00082994  0.01280823
 -0.02500467  0.0117251  -0.07807605 -0.06878992  0.02097732 -0.01486091
  0.05427914  0.02087627 -0.00372176 -0.0059887   0.04761608  0.01555423
  0.06391033  0.0395587   0.02237787 -0.04088105 -0.04267083  0.02118711
  0.00733663 -0.06236511 -0.037313   -0.04486029 -0.07353733 -0.0461784
  0.00334136  0.01992317 -0.0322438  -0.03545843 -0.02027547 -0.01582818
 -0.04011624  0.01731451 -0.07106271 -0.05768263  0.03528926  0.02148469
 -0.03407105 -0.05003249  0.02273603  0.0056677  -0.07578635  0.06684265
  0.04645907  0.0013514   0.06515001 -0.06143555  0.07097124  0.06626815
  0.04872163  0.06824656 -0.00900391  0.05483752 -0.00805832 -0.07863779]

Layer: encoder.3.1.block.0.weight
Parameters:
[0.90658903 0.9549497  0.90047276 0.967666   0.9374179  0.9000525
 0.97919685 0.98353034 0.9142917  0.93214977 0.92388976 0.9889696
 0.9120275  0.9730943  0.9165564  0.9120011  0.89885783 0.8741615
 0.9750911  0.9444964  0.9492988  0.9389314  0.9455681  0.90892386
 0.90424377 0.9617836  0.9344126  0.9327772  0.915138   0.94588834
 0.9609704  0.9110708  0.93311954 0.899598   0.94949776 0.9341932
 0.960685   0.9440396  0.90474814 0.975025   0.9387071  0.93384266
 0.89733005 0.95851254 0.8789104  0.9052482  0.94938695 0.92594945
 0.9596815  0.92867154 0.90704024 0.9320143  0.9194344  0.94772154
 0.88418114 0.92390114 0.9677377  0.84066063 0.8823561  0.955726
 0.960919   0.93918765 0.950225   0.9706493  0.9699588  0.9409659
 0.9798381  0.9729815  0.93168527 0.95163566 0.9685436  0.9846657
 0.93443114 0.9719595  0.9623707  0.9133676  0.9181934  0.8975836
 0.9797177  0.9264774  0.8619121  0.9798842  0.98337513 0.9351129
 0.9317178  0.93332946 0.8784529  0.95281357 0.8928444  0.90452445
 0.94462466 0.9226121  0.94225246 0.9002648  0.9173501  0.91448116
 0.8955683  0.95445275 0.9564021  0.9210673  0.9644874  0.90223217
 0.94409734 0.92294073 0.93205434 0.93093294 0.88792086 1.0082369
 0.96001273 0.93801486 0.9157852  0.90118104 0.93556553 0.9247277
 0.92028123 0.9054373  0.98482573 0.9380243  1.022333   0.93609357
 0.8964745  0.94495964 0.92878485 0.9286855  0.8652567  0.9260115
 0.9288041  0.9780418  0.9203037  0.91556376 0.9730473  0.93190634
 0.91432333 0.9719479  0.9518752  0.9155511  0.9134633  0.8683309
 0.96481925 0.89513785 0.8976839  0.9285197  0.9384688  0.8888142
 0.85780835 0.9370376  0.9535177  0.9213795  0.9612976  0.958567
 0.9445451  0.9688567  0.96849465 0.9413928  0.93445957 0.8976986
 0.9752817  0.9152966  0.9054936  0.9172711  0.96423674 0.9099148
 0.9437591  0.9517764  0.9411121  0.92808324 0.96386683 0.88782454
 0.8680012  0.9565328  0.9290758  0.9047266  0.9400488  0.8986017
 0.90657    0.91231257 0.9656378  0.88701314 0.94373584 0.9577831
 0.93833196 0.9238342  0.93402594 0.8809223  0.94237024 0.94834656
 0.96632653 0.906502   0.98232776 0.96353024 0.9081789  0.8685889 ]

Layer: encoder.3.1.block.0.bias
Parameters:
[ 0.06401258 -0.04123765 -0.04499369 -0.00428825 -0.07974996  0.01264048
 -0.03503541  0.0473628  -0.01723849  0.02573602 -0.03650701  0.05570962
  0.01054345 -0.02957965  0.02061156 -0.00702467 -0.0298144  -0.02008121
  0.0544593   0.08084501  0.00031134  0.0236825  -0.0206602  -0.0192678
  0.02027202 -0.03369162 -0.04383138 -0.01331403  0.0446226  -0.01890324
 -0.04516301  0.02266398  0.00841112  0.02599706 -0.03925874  0.03343794
 -0.00269781 -0.04313707  0.01207264 -0.02648319  0.01782185 -0.030066
 -0.01382771  0.01819743 -0.00729099  0.00100607  0.03319472  0.02277249
  0.02796083 -0.02290159  0.02489925  0.00121561  0.0495215  -0.03692374
 -0.05930022  0.02254885  0.03118033 -0.0624574   0.01303704 -0.00291187
 -0.04745958 -0.05563022 -0.00300064  0.0391759  -0.00173995 -0.02570036
 -0.03004463  0.04369713 -0.00424074 -0.04934033 -0.06436181 -0.01081335
 -0.02670632 -0.02324053  0.06679428 -0.02162604  0.00846393  0.03959813
 -0.01433009  0.00993037 -0.01991645 -0.04053126  0.05334041  0.04884308
 -0.04279267 -0.03222507 -0.01293811  0.01719727 -0.00536556 -0.00620221
 -0.03772942  0.00245902  0.01307852 -0.0117603  -0.04766407 -0.00159225
  0.01445976 -0.03000971 -0.04134963 -0.00503168 -0.04407493 -0.00015406
 -0.02315007 -0.00963872  0.03749465  0.02424104  0.01304185  0.00814545
  0.01938295  0.01993534  0.02894518  0.01900535 -0.0512656  -0.01965999
 -0.03745415 -0.0689256   0.05485447 -0.00848003 -0.04627424  0.02829408
 -0.02623356 -0.01577155 -0.01619567  0.05668519 -0.01914933 -0.03678595
  0.04779392  0.02310594  0.023132   -0.05399713  0.03662191  0.00936286
 -0.04079727 -0.06750133 -0.00668403  0.00888913 -0.04504932 -0.01988101
 -0.05995532  0.0037103  -0.01920054  0.00049137 -0.05686587 -0.00319201
 -0.00492769  0.01497742  0.0424276   0.03889775 -0.04165553  0.0022211
 -0.03236909 -0.01350731 -0.03043576 -0.04360848  0.03344144  0.02035733
  0.05063992 -0.02083142 -0.02647299 -0.04557598  0.02909156 -0.01584392
 -0.07069869 -0.05622335 -0.08221434 -0.00220863 -0.01988874  0.01869205
 -0.02478416  0.02157703 -0.00927283 -0.00334217 -0.01976778  0.00355578
  0.02928565  0.05045677  0.00378416 -0.01333709 -0.06251925  0.03331956
 -0.0019859   0.03662034  0.02779172  0.02760975 -0.02938603 -0.07038053
 -0.00762388 -0.02422374  0.02011243  0.03208319  0.03066658  0.02265876]

Layer: encoder.3.1.block.1.0._packed_params._packed_params
Quantized Weights:
[[-10  -6 -37 ... -32 -58 -26]
 [ 10  31 -13 ... -20 -33  -6]
 [ 27 -12  17 ... -56 -31  -7]
 ...
 [-26 -23  61 ...  18   5 -41]
 [-23  33  12 ...  29 -33  29]
 [ 49  33 -16 ... -23 -12  13]]
Quantization Scale: 0.0014605092583224177
Quantized Bias:
[ 3.34408507e-02  3.84295247e-02 -7.16608614e-02  1.81528572e-02
  1.79127399e-02  1.66488364e-02  2.78964788e-02 -8.70439857e-02
 -1.14982398e-02 -3.38646546e-02  1.55526772e-03 -1.05365524e-02
 -4.18848991e-02 -5.09610698e-02 -7.72841424e-02 -8.85289833e-02
  1.88998841e-02 -2.55186111e-02 -6.84701130e-02  3.96766365e-02
  2.88288463e-02 -9.15766209e-02 -5.17069511e-02 -7.68777281e-02
 -4.39762557e-03  2.98189335e-02 -8.13282207e-02 -4.58167866e-02
  3.25242430e-02 -7.11324364e-02 -3.10620535e-02 -9.30844396e-02
 -5.59243485e-02  4.56972383e-02  2.79190671e-02  3.19672711e-02
 -8.68730098e-02 -9.67336372e-02 -1.01272769e-01 -1.44082746e-02
  1.08888708e-02  4.11433913e-02 -4.87538278e-02 -9.89178661e-03
 -1.30086970e-02  5.01414500e-02  3.50686233e-03 -4.46619838e-02
 -3.19052376e-02  2.13812198e-02 -3.22271250e-02  2.10050214e-02
 -7.41216317e-02 -6.83801547e-02 -4.66406308e-02 -9.06292200e-02
 -9.00086910e-02  1.44307027e-02 -8.82888511e-02 -3.53260264e-02
 -7.27633685e-02  1.67654138e-02 -6.83020279e-02 -7.00109005e-02
 -2.18939856e-02  2.58389208e-02 -1.80000402e-02 -5.11031076e-02
 -3.35403793e-02 -6.77949414e-02 -1.99313387e-02  5.57928579e-03
  2.03018468e-02 -1.65839475e-02 -7.49499351e-02 -8.53743777e-02
 -9.00800303e-02 -5.00185080e-02 -1.58765465e-02 -9.64846015e-02
 -6.67533430e-04  3.31271738e-02 -8.21082201e-03 -6.86371326e-02
  4.46268450e-03  8.79251212e-03  2.12095473e-02 -8.28109309e-02
 -7.02048913e-02 -1.96567085e-02  9.89049301e-03 -3.47250737e-02
 -9.56839249e-02 -3.23690437e-02 -4.43773810e-03 -2.94297636e-02
  3.21117714e-02 -3.16642933e-02  9.85341705e-03 -1.18502341e-02
 -3.02676521e-02 -8.85116160e-02 -7.30544925e-02 -4.81612459e-02
 -1.64746540e-03 -8.49796981e-02  5.30061254e-04  1.40453819e-02
 -2.38665864e-02 -8.38759691e-02 -9.38965678e-02 -2.32576821e-02
 -4.42644320e-02 -3.08701731e-02 -3.08061875e-02 -2.65325401e-02
 -8.60298201e-02 -7.06700161e-02 -5.80128729e-02  9.99022089e-03
 -7.92730451e-02  7.68076815e-03  3.61897536e-02 -3.47737176e-03
 -8.86445194e-02 -9.86246318e-02  3.98547724e-02 -6.35295436e-02
  3.11806332e-03 -6.08874597e-02 -1.11612678e-01 -9.94000286e-02
 -2.28410549e-02 -4.72001955e-02  1.79016311e-02 -8.13296065e-02
 -9.68005806e-02 -3.01957391e-02 -6.45983443e-02 -9.17597413e-02
 -4.92296815e-02 -2.28156075e-02  2.33085938e-02 -7.83875734e-02
 -7.85727501e-02 -8.85311663e-02 -2.56930124e-02 -6.38317391e-02
 -4.82889004e-02  1.79029275e-02 -2.60116570e-02 -3.20690032e-03
 -9.40934569e-02  8.50074366e-03 -2.29881685e-02 -2.34275777e-02
  5.93289093e-04 -7.79831558e-02 -6.63121268e-02  3.20749893e-03
  2.56443042e-02 -8.02122355e-02 -8.81069154e-02 -8.75149295e-03
  4.07282673e-02 -5.04162163e-02  4.71108295e-02 -8.47909600e-02
 -5.40477335e-02 -8.82820636e-02 -9.56440344e-02 -8.86188000e-02
  7.38107553e-03  2.74023432e-02  3.65565680e-02 -3.76039557e-02
 -7.41994902e-02  2.71392353e-02  1.61196571e-02  9.63293482e-03
 -6.88381195e-02 -1.23721007e-02  7.20938155e-03 -3.73355821e-02
  3.49347666e-02  3.06873117e-02  9.14443110e-04 -9.33702942e-03
 -3.39036691e-03  2.59879157e-02 -8.16213265e-02 -2.02066246e-02
 -8.13096464e-02 -5.62749244e-02  2.22724676e-02 -8.56327713e-02
  9.20561515e-03 -2.73022000e-02 -5.93950935e-02  3.28387469e-02
 -5.41961193e-02 -3.17489058e-02 -1.03640400e-01  1.93384904e-02
  2.22734325e-02  1.23279085e-02  1.63911097e-03 -5.46407513e-03
 -7.78590664e-02 -5.49596995e-02  1.77398510e-02  4.47532423e-02
 -6.79952726e-02  1.35761593e-02 -8.23098049e-02  1.38893407e-02
 -2.05889940e-02 -5.39735369e-02  9.84169263e-03 -8.73296410e-02
 -9.95829105e-02 -3.78757007e-02 -5.27958106e-03  1.92242935e-02
  1.41794318e-02  1.10799866e-02 -5.27234785e-02  2.12891791e-02
 -2.44324189e-02 -8.97434503e-02 -7.62360394e-02 -2.57053343e-03
 -6.55963495e-02  1.89778097e-02 -4.92694937e-02  2.75514387e-02
  2.56647822e-03 -6.36865199e-02 -2.36998573e-02 -9.88996327e-02
 -1.28574349e-04 -9.38098356e-02  1.54819544e-02 -7.16944830e-03
  3.33072804e-02 -9.01990160e-02 -8.08810294e-02 -7.32949078e-02
 -3.13485265e-02 -4.91916500e-02  2.23339945e-02 -1.69433933e-02
  1.37230419e-02 -7.08451197e-02 -9.99968573e-02  2.84399297e-02
  1.63360070e-02 -4.04157117e-02 -2.81645893e-03 -7.73861036e-02
 -6.53182119e-02 -8.43027532e-02 -4.99639940e-03 -9.19753388e-02
  4.56175022e-03 -9.50138867e-02 -4.84310649e-03  4.09513041e-02
  4.06551212e-02  9.44323372e-03 -6.29353896e-02  2.52142679e-02
 -6.45425823e-03 -4.23063971e-02 -4.58694138e-02 -7.57393762e-02
 -8.31430256e-02 -4.55564633e-02 -5.66819087e-02 -7.34571591e-02
 -6.13153875e-02 -1.08086849e-02 -1.78057868e-02  1.23326725e-03
  5.19231847e-03 -2.85568219e-02 -4.90197651e-02 -3.93393710e-02
  4.89709303e-02 -3.02622970e-02 -2.23371331e-02 -1.01955600e-01
 -3.77478972e-02 -9.38308910e-02 -6.78889081e-02 -1.06185466e-01
 -7.11290389e-02 -5.75918518e-02 -9.52689797e-02 -1.07214088e-02
 -1.01519510e-01 -1.74033642e-02 -1.40637755e-02  6.42212853e-03
 -4.28065956e-02 -9.71543118e-02 -5.42627275e-02  2.18958575e-02
 -1.17338691e-02 -5.47991581e-02 -6.94215596e-02  5.33533376e-03
 -3.85269970e-02 -5.98661825e-02  1.83683876e-02 -8.89816433e-02
  2.68551037e-02 -9.20682214e-03 -2.29663029e-02 -6.56060651e-02
 -4.18814365e-03 -3.68881933e-02 -5.08026332e-02 -5.78267798e-02
 -1.00667745e-01 -3.58183868e-02 -5.13651706e-02 -8.96418691e-02
 -5.37327491e-02 -1.03991188e-01 -1.09291757e-02  9.00688581e-03
 -1.00121796e-01  2.36569885e-02  3.86376376e-03 -9.61859375e-02
 -1.11125959e-02  2.62853932e-02  1.46634653e-02 -6.95353970e-02
 -6.07179338e-03  6.39385264e-03 -2.54612267e-02 -2.78600715e-02
 -1.80895794e-02 -4.31085788e-02 -1.59944296e-02  1.48639046e-02
 -2.95245070e-02 -2.47140899e-02 -1.07073449e-02 -4.23784107e-02
 -6.62076026e-02 -2.27954220e-02 -8.19380581e-02 -1.21149616e-02
 -5.19269593e-02  2.24542227e-02 -7.87778497e-02 -8.35096166e-02
 -3.30886580e-02  1.22277010e-02 -1.56046459e-02 -3.93226445e-02
 -4.62207459e-02 -4.33016056e-03  2.36485135e-02 -3.37882154e-02
 -1.93520784e-02  1.49636604e-02 -3.26643214e-02  3.21627297e-02
  1.55733516e-02 -6.04579300e-02  2.48222821e-03 -3.16437930e-02
 -3.69817130e-02 -6.51911646e-02  8.58534873e-03 -3.11059095e-02
 -3.24124955e-02 -1.52029712e-02 -5.96678145e-02 -2.75402181e-02
 -7.85623640e-02 -2.33046915e-02  2.10293718e-02 -3.89981531e-02
 -1.49770882e-02 -1.05222464e-01 -3.09293810e-02 -1.43393548e-02
 -3.55424397e-02 -3.65792476e-02 -4.12719026e-02  2.19577868e-02
  1.65409897e-03 -3.21097672e-02 -3.90924960e-02 -5.97115308e-02
 -1.01882331e-01 -3.67071014e-03 -1.04501203e-03 -3.50000076e-02
 -8.14353079e-02 -4.87666689e-02 -8.71501192e-02 -8.00511613e-02
 -1.99121633e-03  2.43571494e-02 -8.55253860e-02 -3.95738520e-02
 -8.75849575e-02  4.17139344e-02 -3.40043865e-02  4.02795151e-03
 -7.36234114e-02 -9.57644880e-02 -7.67537430e-02 -3.90818454e-02
  1.90517039e-03 -9.81141925e-02 -5.62254675e-02 -4.62185405e-02
  3.91823761e-02 -9.67276543e-02  9.45384987e-03 -6.97456598e-02
 -7.01745227e-02 -6.44978285e-02 -6.92856908e-02 -6.57388195e-02
 -6.20582178e-02 -7.70121440e-03 -1.09528847e-01 -6.33749589e-02
  6.60560792e-03 -2.39409506e-02  4.22718748e-02 -1.21171027e-02
 -6.17468879e-02  2.65300944e-02 -4.84462976e-02 -6.09655418e-02
  2.25258097e-02 -6.83576465e-02  2.72244066e-02  6.75037690e-03
 -2.90318578e-02 -2.60123219e-02 -2.36978121e-02 -3.89340967e-02
 -9.44671333e-02 -1.03488341e-02 -3.12995464e-02 -7.79781565e-02
  3.70668189e-04 -6.55685365e-02  1.78303197e-02 -7.51382783e-02
  5.92992036e-03 -1.94594183e-03 -4.64719236e-02 -7.09318370e-02
  2.05965117e-02  2.31188368e-02 -2.70199291e-02 -3.31732705e-02
 -5.98312616e-02 -7.22475201e-02 -5.14147803e-02 -3.28288712e-02
 -4.51597162e-02  2.39126552e-02 -5.67684062e-02 -6.84236437e-02
 -1.12490663e-02 -2.18590330e-02 -3.04014217e-02 -1.11590922e-02
 -7.06070885e-02 -3.49695683e-02  2.82260915e-03  4.21294104e-03
  8.07549153e-03  2.69249510e-02 -1.17036648e-01 -1.17002549e-02
 -9.73478779e-02 -4.31251302e-02 -1.88595653e-02 -2.18433235e-02
  2.86915079e-02  1.16076116e-02 -3.95654526e-04 -3.95276875e-04
 -5.28127812e-02  7.92533997e-03  3.20166200e-02 -7.98810795e-02
  2.53308173e-02 -6.85794726e-02 -2.02186070e-02  1.34103009e-02
  2.50892714e-02 -2.54387166e-02  2.32734978e-02 -4.71405089e-02
 -4.99347895e-02 -8.05393606e-02 -7.59621710e-02 -6.56412309e-03
 -5.98743558e-02  1.95838027e-02 -7.07108900e-02  7.80018931e-03
 -3.16480473e-02  2.85953376e-02  5.10814004e-02  1.37544246e-02
 -1.16405804e-02  5.11470251e-02  2.98033711e-02 -9.51336473e-02
 -1.00990623e-01 -4.32090322e-03  2.46109590e-02  7.53087457e-03
 -2.48032585e-02 -4.06802669e-02 -9.36613381e-02  3.83137427e-02
 -8.36440399e-02 -4.80213836e-02  1.90351531e-02  3.08290645e-02
 -3.72747221e-04 -7.40772262e-02  2.52261721e-02  2.88696885e-02
  1.47659704e-02  2.23575048e-02  2.48470739e-03 -8.50204676e-02
 -7.21998811e-02 -4.82426491e-03 -5.89593947e-02 -5.76972701e-02
 -9.34264734e-02 -4.72195633e-02 -1.01811476e-01 -4.27302495e-02
  2.06335704e-03 -2.28087902e-02 -7.91386366e-02 -6.76058372e-03
 -3.20385322e-02 -2.70609334e-02 -6.13207892e-02 -2.44927034e-02
  2.07693297e-02 -7.02815130e-02  3.63556296e-02 -6.00098297e-02
 -3.20553631e-02  7.58050825e-04 -8.68126154e-02 -7.03967661e-02
 -6.54069036e-02 -3.99452262e-02 -5.65716550e-02 -6.72697425e-02
 -8.60019699e-02 -4.10481207e-02 -3.34008485e-02 -5.75766936e-02
 -3.85860354e-02  1.96427060e-03 -5.92437163e-02  1.39217982e-02
  2.05396879e-02  2.01410130e-02 -5.36013693e-02 -7.39349127e-02
  2.81220004e-02 -3.11214142e-02 -3.02902656e-03 -1.00933939e-01
  3.05094365e-02  3.97727415e-02 -2.64418330e-02 -1.92023478e-02
  3.48626524e-02 -3.93486768e-02 -2.91002635e-02 -8.80956277e-02
 -8.10391828e-02 -9.19166207e-02 -3.08129843e-02 -9.97147858e-02
 -9.37930681e-03 -3.39478143e-02 -1.86079089e-02 -6.26222417e-02
  1.96629912e-02  3.53726521e-02 -1.46847405e-02 -9.76716056e-02
 -6.00882843e-02 -6.23560064e-02 -4.40126564e-03 -8.44747275e-02
 -7.71662220e-03 -7.54850954e-02 -8.38456228e-02 -3.67664620e-02
 -7.24586174e-02  1.09440619e-02  1.90608166e-02 -7.16527998e-02
 -6.98659718e-02 -2.15926617e-02 -6.57064691e-02 -7.19156023e-03
  7.21791585e-04 -8.56153965e-02 -3.64507549e-02 -1.92993730e-02
 -4.81859669e-02  1.51096256e-02 -2.79526468e-02 -5.58520742e-02
  1.16871670e-02 -3.26492600e-02  3.72902714e-02 -3.06850951e-02
 -9.85297337e-02 -5.10731004e-02  1.87288132e-02  1.80083010e-02
 -3.53297628e-02 -5.18396609e-02 -5.72366156e-02 -1.07564119e-05
 -8.16618204e-02 -1.71573013e-02  6.36518095e-03 -1.50742885e-02
 -1.27567034e-02 -3.61557044e-02 -3.98251079e-02  8.73692520e-03
 -7.07020238e-03 -4.13048193e-02  1.80057697e-02 -9.34067369e-02
 -4.59587260e-04 -6.83985427e-02 -7.00773969e-02  1.95520278e-02
 -3.18018273e-02 -1.16624972e-02  1.13966474e-02  2.13716477e-02
  3.55457701e-02 -3.18937823e-02 -4.99439873e-02 -5.33716679e-02
  2.53990889e-02 -2.85690476e-04 -7.83782825e-02  1.00619451e-03
 -4.91406731e-02 -3.61385010e-03 -6.28032982e-02 -1.12024890e-02
  3.81854246e-03 -7.85982013e-02 -9.17332992e-02 -7.72551894e-02
  3.34757194e-02 -6.87246248e-02 -3.58634368e-02 -4.34732400e-02
  2.77536493e-02  1.86936781e-02 -4.21001203e-02 -5.38397655e-02
 -5.44184446e-02 -1.40637942e-02 -2.52406429e-02 -2.78269965e-02
  1.15370471e-02  2.07922328e-02 -2.22334620e-02  2.15257369e-02
  2.09889170e-02  1.87326409e-02 -8.96514729e-02  4.99826437e-03
 -4.24222909e-02 -5.19196130e-02 -5.22994436e-03 -5.53304143e-02
 -1.62489247e-03  3.46175916e-02 -2.10982864e-03 -6.56876564e-02
 -9.03839096e-02 -3.02077513e-02 -5.51436692e-02 -3.10862456e-02
 -4.30774642e-03  1.31329531e-02 -2.12306175e-02 -2.30418053e-02
 -8.29604864e-02 -4.52192649e-02 -1.73434410e-02 -7.17709363e-02
 -1.85792465e-02 -5.45926625e-03 -1.03398524e-02 -4.51492742e-02
  1.71313379e-02 -3.39447521e-02  1.74802952e-02 -7.17075244e-02
 -5.86310141e-02 -6.71715615e-03  3.59549597e-02 -3.64700966e-02
 -5.16612567e-02 -4.45748419e-02  1.61701068e-02  1.24996500e-02
 -2.42097341e-02 -9.75142345e-02 -5.78349307e-02  1.54794734e-02
 -1.02337264e-02  1.10817486e-02 -2.53562387e-02  1.11026997e-02
 -2.08621025e-02  2.52434239e-02 -4.00355645e-02  1.97730977e-02
 -6.56118244e-03  7.67472479e-03 -8.53293538e-02  3.08109839e-02
 -9.70280077e-03 -4.53558974e-02 -2.38926560e-02 -4.88190539e-02
 -1.78068727e-02 -3.18717584e-02 -7.49333203e-02  2.45686676e-02
 -2.75301356e-02 -3.42583396e-02 -1.00152858e-01 -7.12796599e-02
  3.09270229e-02 -3.38969603e-02 -2.92141642e-02  1.13430955e-02]

Layer: encoder.3.1.block.1.2._packed_params._packed_params
Quantized Weights:
[[-45  33 -25 ...  -9  42 -18]
 [ 11   0 -25 ...  23   6  -3]
 [ 19  13  68 ... -32  -4  12]
 ...
 [ 34  14   3 ... -16 -42 -15]
 [ 37   0   7 ... -25 -26 -28]
 [  5 -17   7 ...   8  40 -34]]
Quantization Scale: 0.0010876706801354885
Quantized Bias:
[-1.00369484e-03 -8.54184479e-03  3.20869647e-02  2.83376444e-02
 -1.67784039e-02  2.53753122e-02  2.88641360e-02 -1.18246730e-02
 -2.35563181e-02  2.64488328e-02  3.46837565e-02  3.46741755e-03
 -2.75403503e-02  1.96973998e-02 -6.38309345e-02  2.06521936e-02
 -3.05285268e-02  1.11818258e-02 -3.98471355e-02  3.14030088e-02
 -8.83739628e-03  2.00490514e-03 -2.39098258e-02  5.45737259e-02
 -2.76727267e-02  3.61716002e-03  1.38996467e-02  3.38645354e-02
 -3.08933090e-02 -1.28574790e-02  3.38601321e-02  4.03916324e-03
  1.82127785e-02  2.30248296e-03  1.28709860e-02 -1.18591608e-02
 -2.77196243e-02 -4.28133197e-02 -4.11329307e-02  6.65195985e-03
  1.53374346e-02 -2.81469873e-03  7.53400614e-03 -1.15097528e-02
  3.98556143e-02  1.03100399e-02 -5.74084148e-02  9.64776438e-04
 -3.21819149e-02  3.45471613e-02 -4.07379540e-03 -1.02361292e-02
 -1.37047423e-02  1.50090856e-02 -3.52723524e-02 -2.18370855e-02
 -1.46145979e-02 -6.13466091e-03 -4.35969010e-02 -3.02516781e-02
 -9.37536918e-03  4.20474373e-02 -1.27712404e-02 -1.81729964e-04
 -4.17487808e-02 -1.46585070e-02 -2.14133952e-02 -1.34142516e-02
  1.49074653e-02 -2.45208144e-02  3.47875282e-02  1.63969584e-02
 -1.37208374e-02 -2.24531870e-02 -1.39733963e-02  1.71355437e-03
  6.49929792e-03 -9.52670164e-03 -2.26033721e-02 -6.48877304e-03
  2.79363040e-02  9.80663765e-03 -5.33199161e-02 -2.75682975e-02
 -2.33783834e-02 -6.21561543e-04 -1.12325102e-02 -2.20801868e-02
  2.43532769e-02 -5.83030023e-02 -1.08034443e-02 -3.83929424e-02
 -3.69450860e-02  6.26953691e-03  2.33103465e-02 -9.46419686e-03
 -2.78114397e-02 -6.66601770e-03  1.93680450e-02 -5.11952527e-02
  1.72653385e-02  2.55698320e-02  3.97720002e-02 -2.96091326e-02
 -3.87555771e-02  1.28184604e-02 -3.72441486e-03 -2.63355449e-02
  3.43185826e-03  2.31782291e-02 -4.91565501e-04 -3.78126688e-02
  8.89668893e-03  3.27489316e-03  1.86598720e-03  4.10524234e-02
 -1.62048489e-02 -1.62170127e-05 -2.09088121e-02 -4.32866476e-02
 -8.31996556e-03  2.66767945e-02 -2.45420961e-03 -2.12594401e-02
 -1.42679224e-02 -5.38198277e-04 -4.07033004e-02 -2.26495345e-03
  1.11746062e-02  4.73005511e-03 -6.32016659e-02 -5.13639040e-02
  4.19993922e-02  4.72643301e-02 -9.39707644e-03 -1.16618965e-02
  4.86513413e-02 -6.78938522e-04  7.32099917e-03  2.18739286e-02
 -4.17374969e-02 -2.90199183e-02 -8.03621765e-03 -1.29038999e-02
 -5.37929125e-04 -5.62420748e-02 -3.68680991e-02 -7.14295655e-02
 -2.97518354e-02 -1.16226384e-02 -1.30452104e-02  2.81292927e-02
 -1.86598152e-02  9.90713947e-03 -2.65478734e-02 -1.35600576e-02
 -4.21818569e-02  1.53480498e-02 -3.58136301e-03 -2.28249817e-03
 -1.52482931e-02  3.19598767e-04 -1.76750049e-02  1.04787759e-02
 -7.97177851e-03  4.09150720e-02  3.76335345e-02 -5.97559400e-02
  2.37884037e-02 -2.26340909e-02 -3.26236337e-02 -2.82761510e-02
  3.16708684e-02 -3.33025865e-02 -4.67237793e-02 -3.88363265e-02
 -4.14484292e-02  1.34912739e-02 -2.08438430e-02  1.05708977e-02
 -3.12060658e-02 -5.61606549e-02 -3.42242420e-02  2.21680632e-04
  3.77975553e-02 -1.34690646e-02  9.48876422e-03  1.71602070e-02
  6.79169665e-04 -5.08914050e-03 -2.92692147e-02 -4.67358716e-02]

