Layer: encoder.4.0.block.0.weight
Parameters:
[1.0638334  1.0900003  1.0632051  1.0522518  1.0345049  1.0584017
 1.171075   1.0899905  1.092901   1.0387968  1.0739285  1.0644683
 1.1291837  1.0302291  1.0803701  1.0458523  1.0506347  1.0579739
 1.0771548  1.0868086  1.0476135  1.0388     1.0626955  1.1022085
 1.0526398  1.0761095  1.050911   1.0698489  1.0464872  1.0164665
 1.064336   1.0420206  1.0936005  1.0807015  1.0737051  1.0720949
 1.0656723  1.0433346  1.1175208  1.0728964  1.1148275  1.0733202
 1.0650102  1.111599   1.0534697  1.0558473  1.0893509  1.0697789
 1.0855736  1.0981345  1.1126034  1.0848426  1.1225681  1.047575
 1.0584036  1.081014   1.0569766  1.094553   1.0702877  1.1242552
 1.0932912  1.0814928  1.0935483  1.0443403  1.0912826  1.062287
 1.0801054  1.0686783  1.1019737  1.0818051  1.0492984  1.0771804
 1.024712   1.0790137  1.0959324  1.0865539  1.0841656  1.0525229
 1.0347853  1.0586869  1.0979599  1.070402   1.0869642  1.02287
 1.0635495  1.0513971  1.1174808  1.1090605  1.0511708  1.1042765
 1.0645092  1.0538609  1.0839446  1.0627167  1.0804641  1.1096303
 1.0488926  1.0336177  1.084121   1.0872782  1.0859721  1.1054745
 1.0654029  1.0861555  0.9906905  1.1054037  1.0717851  1.0442251
 1.0446974  1.1030462  1.0713794  1.0697635  1.0566703  1.0149733
 1.0586113  1.0929309  1.0627075  1.0240178  1.0025097  1.0877093
 1.0795422  1.0358152  1.0918403  1.1029563  1.0875512  1.0520512
 1.0517771  1.0729074  1.1203009  1.0556352  1.1076221  1.0884516
 1.0346162  1.0846052  1.0358244  1.0821602  1.1065131  1.0706296
 1.0743905  1.0540861  1.0602586  1.0675642  1.0300559  1.0763636
 1.082288   1.1184256  1.0907842  1.0279299  1.0855538  1.0531739
 1.0906405  1.0517372  1.0926868  1.0738287  1.1093824  1.0903673
 1.0741812  1.0900193  1.0831219  1.0111343  1.06489    1.1050725
 1.028969   1.1084778  1.0451648  1.0810162  1.0872802  1.0647305
 1.0183088  1.0939939  1.0649302  1.0490575  1.0892555  1.0780532
 1.0968025  1.1112771  1.0955261  1.1328683  1.0837611  0.99277216
 1.0455812  1.0851691  1.084148   1.0611854  1.0524688  1.0695608
 1.0469321  1.0601053  1.0288613  1.0275669  1.0675166  1.070226  ]

Layer: encoder.4.0.block.0.bias
Parameters:
[ 0.00254383 -0.01523013  0.00458374  0.01252079 -0.00149461  0.01207449
  0.02833441 -0.015766    0.01638815  0.02627074  0.02743347 -0.03070576
 -0.01168761  0.01819352  0.00394769  0.02000657  0.00532695 -0.02176469
  0.01041407 -0.0066513   0.01498882 -0.00969919  0.01427312  0.0313714
 -0.00068938 -0.01483324  0.0080748   0.01483492 -0.01248847  0.01007784
  0.01039602 -0.01477766  0.01629295 -0.02664642  0.00914999 -0.00312395
  0.01059475  0.00892784 -0.01065112  0.04753091 -0.02347029  0.0268815
  0.00960856 -0.00534321  0.02915555 -0.00714818 -0.00251904  0.00171109
 -0.02831204 -0.00245552 -0.00662343 -0.0110176   0.00580804 -0.00215684
  0.02013323  0.00450938 -0.00544806 -0.0313209  -0.01204223  0.00804762
  0.02761492  0.01277734 -0.02417917 -0.02359606 -0.01366399 -0.00132268
  0.0067247   0.00244686  0.00696701 -0.00864313  0.03240076  0.0345978
  0.02766753  0.01301184 -0.02983963  0.0353047  -0.01376459 -0.0330386
  0.00642627  0.02387357 -0.0036501   0.00661607 -0.01965394 -0.02467312
  0.00723509  0.02470606 -0.02589565 -0.02611011 -0.01643431 -0.02759517
  0.01739154 -0.01009351  0.01065475  0.01639684 -0.0109847  -0.01167435
 -0.02239594 -0.01630066  0.00942503 -0.02666837 -0.00849845  0.02149502
  0.00152838  0.00903483 -0.00024685  0.01633213 -0.02300467 -0.00742036
 -0.02103115  0.0094665  -0.01358002  0.00377819  0.02045517  0.03549967
 -0.01357654  0.011775   -0.02680176 -0.01093163  0.02978721  0.01092664
 -0.01323379  0.00997897  0.01624338  0.01124909  0.0020584  -0.01497946
 -0.04950446  0.0154222  -0.03275699  0.02724703 -0.01673179 -0.00221403
  0.03937628  0.02170037  0.00346737  0.01607601  0.0180057   0.00409011
  0.00384601 -0.00168381  0.00232661  0.00536427 -0.00257656  0.0165296
  0.02866665 -0.01832413 -0.00399656 -0.04252913  0.01142037  0.01695914
  0.01808502 -0.03135905  0.03026611  0.01874073 -0.02899292  0.02182393
 -0.01552884 -0.05385053 -0.00050449  0.04681627 -0.03502034  0.00807132
 -0.02244087  0.02354646  0.01431308  0.0298061   0.02014072 -0.03531381
 -0.01956645 -0.03475173 -0.01853854 -0.0124049  -0.01636571 -0.01711415
 -0.00288773 -0.01932009  0.0061323   0.01834871 -0.00852313 -0.00536954
  0.01834334 -0.03857599  0.03452644 -0.04173464  0.03266857  0.02898365
 -0.00411745  0.02292643 -0.04098394 -0.01329393  0.00999862  0.01394852]

Layer: encoder.4.0.block.1.queries_projection._packed_params._packed_params
Quantized Weights:
[[-15 -13  -7 ...  33 -35  44]
 [-37 -13 -24 ... -22  35   9]
 [ 14 -18  22 ...  -1 -37   1]
 ...
 [-78  52 -53 ... -17  27 -66]
 [-18 -18  28 ... -35 -60   2]
 [ 38 -63 -50 ... -52  34  10]]
Quantization Scale: 0.0017192050581797957
Quantized Bias:
[ 0.00854355  0.0091709  -0.03963624 -0.00625651  0.02809222 -0.0036006
  0.0323357  -0.09898831  0.01871009 -0.02106086  0.06797954 -0.0063742
 -0.02113141  0.03395668 -0.05687724  0.01814353  0.01759506 -0.05389991
  0.01848824  0.05080162  0.01955983  0.013719    0.01806034  0.05937067
 -0.00415574  0.00492266 -0.06610236  0.00492722 -0.00780894  0.06403443
  0.02742708 -0.00908947 -0.07061262 -0.00873268 -0.03918572 -0.03740055
 -0.01768337  0.0441134   0.00798727 -0.04374855 -0.02705414  0.01289159
  0.06838431 -0.01273526  0.05690301  0.04561632 -0.01772146 -0.00099879
 -0.04293614 -0.00898881 -0.0046937  -0.04867942  0.04258799  0.03740824
  0.03749755 -0.01007477  0.00629033  0.06182891  0.05457291  0.03852808
  0.06934631  0.00823542  0.05665368 -0.01965758  0.01044281 -0.00114721
 -0.00517501 -0.06897283  0.06028593 -0.08539228  0.04088791 -0.06671865
 -0.03956948 -0.05717245 -0.00902094  0.02290355  0.00511481 -0.01802657
 -0.02215765 -0.03156567 -0.04963529  0.04844918 -0.06723851 -0.00023525
  0.04788325  0.0393953  -0.0241889   0.03002525  0.01803827 -0.01231305
  0.03779219  0.03623334 -0.03751403 -0.0207912  -0.05779168 -0.04125566
  0.02747478  0.02230355 -0.02231473 -0.0017895   0.00312445 -0.0555344
  0.01720747 -0.08398299 -0.03874171  0.06159205 -0.04607771  0.00250196
 -0.07643242  0.04099658  0.05191832  0.00709264  0.06729592 -0.05815938
  0.0279821   0.1031587  -0.02690654  0.0555227  -0.04256671  0.01425219
 -0.02400113  0.13043065  0.08718398 -0.04400269  0.03713293  0.11250995
 -0.01841354 -0.06872394 -0.01442903 -0.07867589 -0.0543051  -0.01462252
  0.00864462 -0.13256373 -0.05310487  0.06901335 -0.01242475  0.1505093
 -0.09015018 -0.07714473 -0.00679383 -0.031432   -0.06063077 -0.05240329
  0.07100735  0.07813307  0.04474039  0.00082572 -0.032511    0.04954318
  0.02639434  0.08136148  0.06111069 -0.04607354  0.03017221  0.02510206
 -0.02817356  0.0259593  -0.06078454 -0.04752791  0.01713462 -0.0080291
 -0.02077631 -0.02596442 -0.01675153  0.07647362  0.01971284  0.02109852
  0.03723156 -0.09591259 -0.06313397  0.04476696  0.06227836  0.02867601
  0.04497676  0.03153595  0.03355651 -0.06851035  0.06338094 -0.00340392
 -0.07184712  0.03801979  0.0075373  -0.07598521 -0.00196202  0.01429531
 -0.03168104 -0.02659532 -0.04318544  0.00656867 -0.0973733  -0.01779855]

Layer: encoder.4.0.block.1.values_projection._packed_params._packed_params
Quantized Weights:
[[-11 -20  14 ...  29   0 -22]
 [ 34 -36 -44 ... -17 -24  36]
 [ -5   2  -5 ...  -7  -5 -10]
 ...
 [ 16  13   3 ...  48  16  38]
 [  2  42 -49 ...  29 -63  26]
 [  6  10 -30 ... -14 -13 -10]]
Quantization Scale: 0.002242662012577057
Quantized Bias:
[-4.80112582e-02 -5.79655345e-04 -3.03365365e-02 -4.89489958e-02
 -1.03736594e-02  4.97307591e-02  2.19075028e-02  3.01039927e-02
  1.75152952e-03  6.33801371e-02 -1.01476191e-02 -2.49674655e-02
  3.66015285e-02  1.19181052e-02  2.84384913e-03 -3.58341401e-03
 -5.24048731e-02  9.92292725e-03  4.94646505e-02  6.94618598e-02
 -3.64503972e-02  1.53277377e-02 -1.48305073e-02 -5.72502725e-02
  1.99700426e-02 -6.15881234e-02 -3.99401076e-02  1.07059290e-03
 -4.62144278e-02  2.33952478e-02 -4.74834628e-02 -6.09548725e-02
 -5.70617877e-02  1.25926295e-02 -1.89322629e-03  1.30982231e-02
 -2.35071853e-02 -6.79284260e-02 -3.99868861e-02 -4.44601064e-05
 -3.71994264e-02 -2.38614529e-02  4.82012816e-02 -8.84462520e-03
 -5.94072714e-02 -8.37068819e-03  2.63055675e-02  2.54762284e-02
  1.32964682e-02 -1.44465797e-04 -5.52648902e-02  4.19900641e-02
  3.55646126e-02  4.40765545e-02 -5.68769686e-02 -1.75135881e-02
  4.16998155e-02 -1.20386044e-02 -1.58767644e-02 -4.23841253e-02
 -3.83980162e-02 -3.61783206e-02 -3.06385290e-02 -3.30902934e-02
  5.76232001e-02 -4.96789292e-02 -3.52523960e-02 -2.52944860e-03
  5.12462258e-02 -4.03823098e-03 -3.73255946e-02 -7.13864788e-02
  3.75223570e-02  9.01688449e-03 -6.22480065e-02  1.66763663e-02
  2.43472755e-02 -4.43453342e-02  2.47594398e-02 -4.52979393e-02
 -2.55625807e-02 -4.73919809e-02  7.21557438e-02 -4.25362103e-02
 -6.30236864e-02 -5.38721941e-02  3.83781642e-02 -1.37432816e-03
 -7.84108136e-03 -1.12801017e-02  2.23520845e-02 -2.58655678e-02
 -4.94751669e-02 -5.33897942e-03 -6.11769073e-02 -2.70950738e-02
  3.40585299e-02 -3.31097394e-02 -1.08523881e-02  5.95868751e-02
  5.79976812e-02  4.70195636e-02  3.47470716e-02  2.29487149e-03
 -4.06241603e-02 -6.65062368e-02  7.57449940e-02  5.82709722e-02
  8.38641077e-02 -4.79938947e-02  2.59603281e-02  1.30844594e-03
  7.54735544e-02 -5.05644307e-02 -2.68620756e-02 -5.65181598e-02
 -3.28674354e-02 -3.34776267e-02  6.73873127e-02  9.76779498e-03
 -5.01312353e-02  2.04732977e-02  2.02864129e-03 -1.54001301e-03
  1.15129277e-02  4.09860089e-02 -4.49654423e-02 -1.87273789e-02
 -5.96003160e-02  2.59154104e-02 -6.34204447e-02 -5.35801761e-02
  3.04618496e-02 -4.56789583e-02  1.85099747e-02  6.44488633e-02
 -2.08846200e-03 -4.95035611e-02  3.36579233e-02 -2.34391904e-04
  6.28784997e-03  1.42280422e-02 -6.12476319e-02  3.01267728e-02
  5.20686097e-02 -7.20604658e-02 -5.67526668e-02 -1.71105284e-02
 -2.43451409e-02 -3.91314998e-02  5.81790507e-02 -9.15182568e-03
  4.69088294e-02 -1.86236936e-03 -3.95319387e-02  1.81404259e-02
  4.73317876e-02  3.73560712e-02  2.61409720e-03  2.59475969e-02
 -2.55155452e-02 -8.78786854e-03 -6.55275062e-02 -5.97252697e-03
  3.05217467e-02  3.09686847e-02 -5.11946343e-02 -2.44608670e-02
 -1.68253314e-02 -2.07986813e-02 -6.42935932e-02  1.79027859e-02
  2.78529376e-02 -3.07838954e-02  3.33374478e-02  6.23801164e-02
 -3.07380315e-03 -3.60558671e-03 -5.01575209e-02 -3.92098762e-02
  4.38481010e-02  7.48056322e-02 -6.57569394e-02 -1.59296449e-02
  3.57851759e-02 -8.13458953e-03  3.97184417e-02 -5.82204061e-03
 -2.25488842e-02 -5.86194033e-03  1.63519774e-02  6.28130212e-02]

Layer: encoder.4.0.block.1.keys_projection._packed_params._packed_params
Quantized Weights:
[[-11 -21  59 ... -35 -90  32]
 [ 28 106  25 ...  -1   9 -11]
 [ -2 -37  16 ... -12 -19 -14]
 ...
 [ 22 -38   1 ...  28   6 -38]
 [-48 -10 -11 ... -26  53 -35]
 [-34  34  26 ... -22 -17  66]]
Quantization Scale: 0.0015671472065150738
Quantized Bias:
[-1.08952736e-02  6.31798208e-02 -1.88243147e-02  4.24133576e-02
 -7.80596882e-02 -3.22971717e-02  5.05119115e-02  4.94953105e-03
  7.04068169e-02  4.54291031e-02 -4.96296585e-02 -1.49552245e-02
  4.61664796e-02  6.39726445e-02 -4.82921628e-03 -6.44524917e-02
 -1.06804436e-02 -5.62928878e-02 -5.18340021e-02  6.10317141e-02
  9.91277993e-05 -3.34479809e-02 -1.25167249e-02 -6.86483458e-02
 -2.80742254e-02  1.05104391e-02  2.73726508e-02 -4.69748639e-02
 -1.24876425e-02 -1.23327160e-02  4.83081602e-02  5.29555902e-02
  5.77951632e-02  1.46344667e-02 -6.10492826e-02  7.34506622e-02
  5.63775329e-03 -7.19483197e-02  4.82940003e-02  6.85911924e-02
 -4.91590705e-03 -2.38466244e-02 -6.25445917e-02 -6.40453026e-02
 -7.37276822e-02  4.88823988e-02  5.05216643e-02  3.78107503e-02
 -2.99813156e-03 -6.69457344e-03  1.46184973e-02 -1.90698635e-02
  3.00411619e-02 -2.23232359e-02 -4.26090397e-02 -7.11091235e-02
 -4.47666682e-02 -5.67892417e-02  3.27266417e-02  1.76616464e-04
 -5.88619448e-02 -2.38715881e-03 -5.52674457e-02 -6.62428364e-02
  6.83571026e-02 -5.51049188e-02  5.20671532e-02 -2.60382444e-02
  8.47875327e-03 -5.21048717e-02 -2.26458870e-02 -4.28981334e-02
  1.25974007e-02  1.26647446e-02 -5.26200887e-03 -1.77781414e-02
  3.30803357e-02  1.61503311e-02 -5.98198809e-02  4.03916426e-02
 -1.00207850e-02 -5.56700639e-02 -1.35022607e-02 -1.76439844e-02
 -1.12797422e-02 -1.66672152e-02 -1.36864348e-03 -7.18910396e-02
 -5.54917417e-02 -6.45649359e-02 -1.94587838e-03  3.11637297e-02
  2.06241608e-02  1.77070461e-02 -2.02628504e-03 -6.89460412e-02
 -4.97093145e-03 -3.72312702e-02  4.65047993e-02 -6.24395907e-02
  1.13852248e-02 -7.13120028e-02 -7.12864175e-02 -4.42929231e-02
 -6.23114407e-02  4.62004077e-03  2.24872883e-02 -2.79338714e-02
  3.95685732e-02  2.48557776e-02 -7.29786744e-03  2.71331333e-02
  6.05153255e-02  5.61639741e-02  5.87264709e-02 -5.36294356e-02
  6.94520399e-02 -3.32552381e-02 -4.12768647e-02  5.33022545e-02
 -1.86829697e-02 -1.63471308e-02 -1.81977935e-02  5.13865165e-02
 -6.14111274e-02 -5.53316064e-03  4.31730486e-02 -7.10518286e-02
 -5.17365262e-02  1.94612946e-02  6.99783629e-03  1.12671079e-02
 -4.11844142e-02  4.42529470e-02  4.89775985e-02  3.33273336e-02
 -4.82846759e-02 -1.60335768e-02  6.61642244e-03 -1.70107353e-02
  5.02774417e-02 -8.03910848e-03  1.18409302e-02  1.55396443e-02
 -2.47474425e-02  5.01443259e-02 -2.63208896e-02 -4.70943935e-02
  7.46903121e-02  2.98004430e-02  3.08801103e-02  1.59310810e-02
  5.12478314e-02 -3.36798988e-02 -3.49298567e-02 -4.23274077e-02
  3.85130830e-02 -1.52181298e-03 -1.16279088e-02  5.83717860e-02
 -5.76810241e-02 -3.94698493e-02 -2.90577188e-02  2.90302280e-02
  1.16265444e-04 -1.64279621e-02 -4.81601106e-03  3.83490361e-02
  5.36870845e-02 -2.66545941e-03  1.83343608e-02 -7.74913505e-02
  1.18929194e-02 -1.86712276e-02  2.64213197e-02  7.64763877e-02
 -1.41627891e-02  2.64841598e-02  1.32698845e-02  2.07225210e-03
  2.30093393e-02  6.02881797e-03 -5.24155088e-02  6.94597736e-02
  2.72475313e-02  7.53770396e-02 -4.50686458e-03  7.18607008e-02
  7.44747147e-02  4.90746237e-02  2.03284044e-02 -5.29144965e-02]

Layer: encoder.4.0.block.1.final_projection._packed_params._packed_params
Quantized Weights:
[[ 64  18  24 ... -58  49   7]
 [ 62 -34  30 ...  36 -47  27]
 [-22  61  -2 ...  21 -82 -78]
 ...
 [-32  33 -55 ... -39  50  27]
 [-22  19 -21 ...  36 -65 -60]
 [ 37   0 -17 ...  25  42  67]]
Quantization Scale: 0.0022832865361124277
Quantized Bias:
[-1.59194414e-02 -5.30349761e-02  6.26906082e-02  6.53138459e-02
 -3.66723835e-02  6.12377636e-02  5.34299165e-02  5.57896029e-03
  4.02875468e-02  5.97226657e-02 -2.08202638e-02  4.10509035e-02
 -4.35469300e-02 -8.08004756e-03 -6.77166060e-02 -3.66435423e-02
  3.09020169e-02 -4.15646285e-02  5.17686829e-02  1.46330157e-02
  8.41423348e-02 -3.53330262e-02  1.25107057e-02 -2.52761561e-02
 -1.10117774e-02 -1.44481752e-02 -7.50286132e-03  2.70955395e-02
 -6.18422255e-02  1.88861955e-02 -4.09628078e-02  4.45354283e-02
  4.17569317e-02 -2.46908125e-02 -3.67484204e-02 -8.64048004e-02
  1.60886850e-02  4.10185568e-02 -5.10694049e-02  7.61084482e-02
  3.39441039e-02  3.87812331e-02 -2.51556151e-02  2.25446001e-02
 -3.50514017e-02  2.35623699e-02 -1.36912446e-02  6.63316436e-03
  3.17469053e-02  3.52754667e-02  5.72799845e-03  8.57316656e-04
 -1.69169868e-03 -1.66743447e-03  3.59919108e-02 -4.34284955e-02
  3.03931870e-02 -5.87040000e-02  1.04004601e-02  6.10935874e-03
  7.07111135e-02  3.00884191e-02  1.99506730e-02 -8.67847428e-02
 -1.01052197e-02  4.16602753e-02 -2.62657683e-02  4.45086807e-02
  3.35809179e-02  7.38500804e-02 -5.88179305e-02 -3.58483568e-02
  1.07161393e-02  1.56802628e-02  4.34021838e-02  4.25962657e-02
 -5.82136847e-02 -3.28450538e-02 -6.23039752e-02 -4.78458814e-02
 -4.68902178e-02  1.07472343e-02 -2.38477513e-02  3.67795862e-02
  3.10034808e-02  9.68778580e-02 -7.30082160e-04 -1.80871747e-02
  9.00837854e-02 -7.23262131e-02 -6.01849100e-03 -3.19687277e-02
  7.07071973e-03  5.51897325e-02  8.26204009e-03 -9.09143537e-02
  3.22638527e-02 -5.09403199e-02 -2.30142120e-02  4.62757200e-02
  2.30463166e-02 -1.78603381e-02 -4.95971479e-02  3.93178165e-02
  4.08878513e-02 -3.47100347e-02  6.51374161e-02 -4.68651317e-02
 -3.51790302e-02 -1.20947622e-02 -6.87661543e-02 -7.66983852e-02
 -2.61888001e-02 -2.84820162e-02 -2.40074266e-02  5.26000224e-02
 -7.08553940e-02  5.63262701e-02  5.42496294e-02 -1.04317078e-02
  2.63150819e-02  4.55763042e-02 -3.18338722e-02 -4.02637124e-02
 -2.18311008e-02 -3.15672047e-02  2.23322641e-02 -5.29794730e-02
 -2.57918499e-02 -5.99685386e-02 -8.03051665e-02 -6.57757446e-02
 -3.52680124e-02 -2.36800574e-02  8.45925510e-03 -6.12909049e-02
 -4.65963297e-02 -1.33830030e-02 -2.59373374e-02  7.99251050e-02
 -7.00233951e-02 -2.61529125e-02  5.27727827e-02  4.27392945e-02
 -1.64763797e-02 -8.04040283e-02 -5.69620430e-02 -8.69226903e-02
 -5.13307527e-02 -4.28460687e-02  6.37197644e-02 -7.02755526e-02
  4.03638519e-02  6.98649511e-03  3.60348560e-02  2.46113781e-02
 -6.87594563e-02 -7.17532337e-02  4.22662906e-02 -2.03503110e-02
  3.03844940e-02 -3.01869363e-02  3.96606922e-02 -2.37555732e-03
 -3.05690095e-02  6.54626489e-02 -1.36134252e-02 -1.04444735e-01
 -6.04851125e-03  2.49436703e-02 -4.83498573e-02 -2.01023743e-02
 -1.04014172e-04 -2.15127226e-02 -6.98429197e-02  3.87478098e-02
 -8.56040716e-02 -3.34162414e-02 -8.36173967e-02  4.40046452e-02
 -4.12357487e-02 -3.11840829e-02 -6.63776100e-02 -4.53326777e-02
 -2.91438419e-02 -5.08109853e-02  4.25187275e-02  6.27059117e-02
 -7.60032758e-02  7.22188503e-02 -5.22346385e-02 -6.14040196e-02]

Layer: encoder.4.1.block.0.weight
Parameters:
[0.83848345 0.87292236 0.8613913  0.9557072  0.9088501  0.93960786
 0.9706961  0.9609926  0.86257994 0.89799    0.8755982  0.973341
 0.8908771  0.9171688  0.8736197  0.90560406 0.87759805 0.94170594
 0.958801   0.92464304 0.937657   0.8977825  0.89719445 0.88553137
 0.82160735 0.89970654 0.9275262  0.85981244 0.862189   0.87101555
 0.9306872  0.8625691  0.9284521  0.8541386  0.88147503 0.94596153
 0.93314755 0.8715086  0.87881243 0.8776249  0.878175   0.86227226
 0.8724105  0.9348122  0.91264105 0.87828    0.8718379  0.87214965
 1.0108025  0.83991677 0.83591837 0.91528654 0.8769981  0.9188066
 0.8758884  0.85924125 0.8911064  0.8944169  0.8594179  0.9404081
 0.90974194 0.92369354 0.90289915 0.9584845  0.9252397  0.9093969
 0.93079644 0.925194   0.93534523 0.93704057 0.99147385 0.92121464
 0.8548964  0.90981215 0.9346911  0.8770692  0.8864468  0.8991769
 0.949576   0.9143899  0.884727   0.9491504  0.9383038  0.8931769
 0.91831285 0.93330514 0.94712293 0.92399406 0.8691559  0.8387929
 0.9196829  0.8932278  0.878045   0.8863664  0.930402   0.8961514
 0.8436876  0.894637   0.91364735 0.8573086  0.9171054  0.850062
 0.95853865 0.86012596 0.9281454  0.9312807  0.9300664  0.9405621
 0.93684524 0.9015828  0.91098475 0.93687487 0.9204857  0.9038175
 0.90013313 0.8786273  0.94711816 0.93330216 0.9533785  0.91309565
 0.86037976 0.934346   0.85870814 0.9128846  0.84583676 0.91732025
 0.89705545 0.8816444  0.90703696 0.85104877 0.9100064  0.93979067
 0.90741277 0.87649614 0.9259599  0.85217273 0.874977   0.89423853
 0.9065562  0.8622253  0.8860218  0.87619764 0.9268119  0.85499144
 0.9160733  0.946662   0.902705   0.9040599  0.9509345  0.9259767
 0.87898976 0.8511262  0.87357396 0.9153487  0.86711526 0.8526863
 0.94554603 0.8595593  0.84480435 0.9189612  0.92419386 0.87984717
 0.9400699  0.8827644  0.87797713 0.88352615 0.92709583 0.96604663
 0.9341872  0.9508529  0.9452477  0.92903435 0.9359468  0.8990749
 0.8638601  0.86670774 0.93741804 0.9320582  0.8571883  0.927956
 0.959864   0.9640034  0.92532575 0.856929   0.91474575 0.9371064
 0.93928856 0.88328314 0.93991804 0.8801838  0.8939164  0.8749971 ]

Layer: encoder.4.1.block.0.bias
Parameters:
[ 0.08065796 -0.02344534 -0.03252802 -0.00618466 -0.024287    0.02842431
 -0.00427593  0.06543064 -0.02322004  0.0228579  -0.04779442  0.00810862
 -0.03692868 -0.05185578 -0.00391227 -0.01312892 -0.03071309 -0.05839062
  0.04181396  0.05494036 -0.03385293  0.01159375 -0.01436732 -0.03880063
  0.01125606 -0.02756787 -0.03656122 -0.00205895  0.01806795  0.00221316
 -0.03498397  0.0040097  -0.00439027  0.03940233 -0.01747862  0.02217068
  0.00261588 -0.02727511  0.03700111 -0.0144372   0.00483382 -0.03354021
 -0.01791243  0.01840592 -0.03006224  0.00878131  0.03857111 -0.011207
  0.03851283  0.00804512  0.02320691 -0.00075447  0.01741146 -0.03932461
 -0.0208438  -0.00785048  0.04074526 -0.04204841 -0.04134971 -0.02272173
 -0.03556147 -0.00103196 -0.00874285  0.00579858  0.04983551 -0.00326621
 -0.02737202  0.01900536  0.00844249 -0.03776539 -0.05221597 -0.04265197
 -0.02797394 -0.02299179  0.0264418  -0.04391588 -0.01163824  0.00883183
 -0.0210092   0.02696563 -0.00903346 -0.02818849  0.01281863  0.03585397
 -0.0237604  -0.0303194   0.00956076  0.00846958 -0.00302865  0.03962099
 -0.03351556  0.03190782  0.01776578  0.04357212 -0.02050763  0.03295824
  0.05772245 -0.01387476 -0.04669468 -0.02555095 -0.02585201 -0.00483668
 -0.03502467 -0.0019899   0.04027688  0.03761354  0.01602699  0.02091658
  0.02278292  0.06482764  0.03585313 -0.0137815  -0.00222754 -0.05524191
 -0.01270145  0.00543862  0.01871287  0.03398138 -0.04431976  0.03746101
 -0.04370875  0.00133464 -0.02275591  0.01992158 -0.01915181 -0.03865929
  0.01071489 -0.00924051  0.01059407 -0.01329348  0.01201624 -0.03395904
 -0.02583152 -0.04242719  0.01326638 -0.00231289 -0.03596495  0.032858
 -0.0254548  -0.00482654 -0.03959762  0.00541976  0.01711059 -0.0356112
 -0.04400446  0.01840543  0.05168834  0.04078476 -0.01315787  0.00811172
 -0.06548556 -0.00130024 -0.04093275 -0.04330255  0.00261637  0.00603746
  0.00311384 -0.03876409  0.00898068 -0.04605219  0.03798262  0.00236926
 -0.03323036 -0.01761903 -0.02634545 -0.01446425 -0.03324302  0.01853758
 -0.00476017  0.04184071 -0.03620704  0.00535162 -0.02101144 -0.00854536
  0.06009202  0.02629419  0.01327909 -0.00505118 -0.00842058  0.03401893
 -0.02053086  0.04660283  0.008022    0.04837102 -0.00576355 -0.03106015
 -0.01581577 -0.039118    0.03751328  0.05597077 -0.00845706 -0.01502724]

Layer: encoder.4.1.block.1.0._packed_params._packed_params
Quantized Weights:
[[  9  -4 -16 ...   7  37  -7]
 [-10  36 -54 ...  32 -12 -44]
 [-41 -21  23 ...   2 -14 -26]
 ...
 [-24  -6   1 ... -21 -15 -45]
 [  2  12   7 ... -35 -21 -48]
 [-57  -2  -2 ...  26 -49  50]]
Quantization Scale: 0.0013701356947422028
Quantized Bias:
[ 5.92833525e-03 -7.62625486e-02  7.62299821e-03 -2.55455207e-02
 -1.41795108e-03 -3.81003581e-02  5.97935915e-03  1.97492503e-02
 -3.08510661e-02  3.32569052e-03 -5.38288848e-03 -6.15297221e-02
  1.05409073e-02 -8.06172490e-02  2.21817307e-02 -4.64063697e-02
 -3.13577354e-02  1.51866945e-02 -6.70809969e-02  7.34236976e-03
 -5.90855479e-02  1.69616658e-02 -4.22026329e-02 -5.73938861e-02
 -8.55356306e-02  8.23242404e-03  1.74700543e-02 -1.09109380e-04
 -1.01621142e-02 -4.38637212e-02  2.00363668e-03 -6.56061471e-02
 -3.63551341e-02  8.82795639e-03  2.68897954e-02 -2.23281197e-02
 -1.00437775e-01 -3.15940902e-02 -9.83183682e-02 -2.69689001e-02
 -3.04357260e-02 -8.15172940e-02 -2.39578784e-02 -5.24848923e-02
  5.89600811e-03 -9.74636897e-02  1.03436913e-02 -4.70234714e-02
 -1.22086145e-02 -1.76066086e-02 -4.03784588e-02  5.92549425e-03
  2.02050582e-02 -6.73327502e-03 -2.86376383e-03 -7.68375471e-02
 -6.89910352e-02  2.92851008e-03 -3.52513678e-02 -5.29248379e-02
 -8.47436562e-02 -6.10172451e-02  1.94694772e-02 -3.85388508e-02
  9.19108558e-03  5.93298255e-03 -1.14109358e-02 -4.17301990e-02
 -7.77739733e-02  1.39095739e-03 -1.05035521e-01 -8.80882815e-02
 -4.84451652e-02 -1.14912719e-01 -6.67529628e-02 -9.80802849e-02
 -1.09756343e-01 -8.03983659e-02 -8.06305259e-02 -6.14773743e-02
 -6.99064732e-02 -6.23587694e-04 -7.21596852e-02 -1.69361755e-02
 -4.13683653e-02  3.33751179e-02  5.55075472e-03 -1.45504875e-02
 -2.79334318e-02 -1.50966633e-03 -5.84102906e-02 -9.27684680e-02
 -4.02780958e-02  2.35240255e-02  7.04244804e-03 -1.54578453e-02
 -8.78483057e-02  6.34451630e-03 -7.48924091e-02 -6.01301044e-02
  4.37598862e-02 -1.61179167e-03 -6.79753721e-02 -2.41704434e-02
 -9.46476683e-03 -6.63306639e-02 -7.27074221e-02 -3.73876318e-02
  1.40132271e-02  2.64902599e-02  4.11210163e-03 -4.27107625e-02
 -5.25112376e-02  8.79389141e-03 -4.66239192e-02 -8.53182375e-02
 -2.97400448e-03  1.87821575e-02 -7.73504376e-02 -1.80913173e-02
 -3.62696089e-02 -5.75350933e-02 -2.72023715e-02 -5.75862564e-02
  1.73912030e-02  1.37740141e-02  3.42084356e-02 -1.41454581e-02
 -1.72880720e-02 -3.09115145e-02  2.17389185e-02 -8.32284614e-02
  2.67598685e-03 -1.84044931e-02 -1.03630719e-03 -1.96646079e-02
 -2.05686111e-02 -5.66721112e-02  3.19745950e-02  2.14026514e-02
 -9.71985385e-02 -5.72482422e-02  2.61430461e-02 -6.54458925e-02
 -4.96175140e-02  4.40702774e-02 -5.06707430e-02 -6.20313808e-02
 -5.88966608e-02  2.99583338e-02  3.13801952e-02 -9.44160223e-02
 -6.08268613e-03  3.15904506e-02 -5.68555892e-02 -9.74353105e-02
 -1.86954904e-02 -4.68173204e-03  1.72882453e-02  1.87531225e-02
 -5.38074877e-03 -3.18508297e-02 -7.08182827e-02 -6.13144375e-02
 -4.80819829e-02  4.40497650e-03 -3.32799256e-02  1.23700844e-02
 -4.46920954e-02  4.13138652e-03 -2.46309824e-02 -2.47686170e-02
 -1.09329708e-01  3.60224769e-02 -1.35385003e-02  1.98275484e-02
 -8.48205462e-02 -5.32738641e-02 -4.61738296e-02 -4.97495756e-02
 -4.93373312e-02 -4.71879020e-02 -5.14259599e-02  7.82214943e-03
 -2.05318127e-02 -3.51279369e-03  1.20572476e-02 -2.76909824e-02
  1.78647619e-02 -1.51458557e-03  2.24328227e-02 -9.10997689e-02
  1.22463722e-02  3.02296262e-02  2.24573677e-03 -3.85824889e-02
  3.21337879e-02 -1.03687085e-01 -7.07083195e-02 -5.56999864e-03
 -9.88359526e-02 -8.37972835e-02 -2.66664289e-02 -6.60587698e-02
 -8.15113410e-02 -3.00314426e-02 -1.73301212e-02 -1.12826101e-01
 -6.88867494e-02 -6.81454316e-02 -1.78664271e-02 -9.55893397e-02
 -9.68112573e-02 -9.40405950e-02 -4.12508585e-02 -9.69803259e-02
 -2.49502547e-02 -9.97718647e-02 -2.66450066e-02 -7.43923560e-02
  7.48782931e-03 -6.82818219e-02  1.26734423e-02 -2.10254565e-02
 -6.61683977e-02 -9.10360739e-02 -7.08865076e-02 -1.51565317e-02
  5.17049618e-03 -3.61499637e-02 -2.49497853e-02 -8.88556615e-02
  8.46703164e-03 -4.32652421e-02 -8.64876732e-02  2.37189643e-02
 -9.17536765e-02  5.78835839e-03 -1.68001764e-02  1.54347913e-02
 -7.94440731e-02 -7.23207667e-02 -1.26710944e-02  2.92048380e-02
  1.89318527e-02 -3.75592448e-02 -1.75836924e-02  8.85944231e-04
 -2.70162616e-03 -1.90937184e-02 -4.72866371e-02  2.93575469e-02
 -1.78332664e-02 -1.06494082e-03 -2.21652966e-02 -6.29671961e-02
 -1.61785018e-02 -6.89265206e-02 -1.19535737e-02 -5.95125668e-02
 -7.18714446e-02 -6.50972128e-02 -1.80290956e-02 -3.73274297e-03
 -7.37496018e-02 -1.01429438e-02 -9.22696739e-02 -8.03119466e-02
 -4.11548205e-02 -4.03697900e-02  1.01885991e-02  1.79823972e-02
  1.10238809e-02 -5.25308996e-02  6.41830266e-03 -1.04038026e-02
  1.25921182e-02 -7.39224553e-02 -3.52920443e-02 -7.14874491e-02
 -3.88508141e-02 -2.69936468e-03 -9.30595696e-02  2.25029103e-02
  1.06747448e-02 -3.81605923e-02 -3.79284588e-03  1.92594863e-02
 -9.33711976e-02 -3.76100279e-02  2.37298589e-02 -5.28437793e-02
 -4.72040400e-02 -5.90311885e-02  2.30281185e-02  1.72532517e-02
  1.20883528e-02 -4.26758267e-02 -5.69869243e-02 -4.37820144e-02
 -9.45805982e-02 -6.35696128e-02 -8.23171437e-02 -3.87572050e-02
 -7.45112374e-02 -8.48274007e-02 -9.95110422e-02 -5.44936433e-02
 -9.11437348e-02 -4.60558347e-02 -5.86514100e-02 -8.65907781e-03
 -1.59782991e-02  1.28251221e-02 -4.58972901e-02 -2.65425723e-02
 -3.85328345e-02 -1.03171490e-01  3.85866011e-03  1.39265023e-02
 -9.61952806e-02  2.75245565e-03  1.86108984e-02 -5.99150620e-02
 -7.67248198e-02 -3.28719430e-02 -8.43580291e-02 -3.17666940e-02
 -1.58781763e-02 -9.41678807e-02  3.44073283e-04 -3.58160026e-02
 -7.07084015e-02 -6.50065020e-02 -9.27097946e-02  2.13892702e-02
 -1.40680736e-02 -3.52066234e-02 -8.43299255e-02 -8.99339020e-02
  2.17277650e-03 -8.99392068e-02 -1.39328344e-02  4.21252189e-04
 -1.20967990e-02 -7.24611729e-02 -6.48724660e-02  3.06875594e-02
  5.74130146e-03 -8.44973624e-02 -7.45149925e-02 -9.46347322e-03
 -6.49472997e-02  7.39929825e-03 -2.38727983e-02 -9.00034755e-02
  2.83054411e-02 -1.05183840e-01 -9.38466638e-02 -2.80334651e-02
 -2.72449739e-02 -7.22616836e-02  1.47901801e-02 -9.02149454e-02
 -3.08563877e-02  1.40327746e-02  4.11121026e-02 -3.29663083e-02
  1.81258023e-02 -6.83405846e-02 -8.00562929e-03 -4.98935208e-02
 -1.67118700e-03  2.41155233e-02 -3.65997814e-02 -6.09047040e-02
 -1.18002392e-01 -4.52382155e-02 -3.69127579e-02 -5.13380021e-02
  2.93681584e-02 -6.03657328e-02  1.25408024e-02 -2.94983182e-02
 -6.18245313e-03  6.34834345e-04 -6.48248941e-02 -8.52716267e-02
  1.21515254e-02  2.17714868e-02 -1.99303888e-02 -1.91019326e-02
 -8.24258942e-03  1.21990992e-02 -3.47080156e-02  2.40419526e-02
 -6.99869320e-02 -1.00690657e-02 -5.90134300e-02 -3.84884477e-02
 -7.35048801e-02  1.40561247e-02 -1.71144176e-02 -1.62647292e-02
 -3.28682326e-02  2.19706651e-02  2.79293321e-02 -6.85237050e-02
 -9.68824178e-02 -9.26413313e-02  7.37464987e-03 -8.49907771e-02
  6.55325130e-04 -2.58104745e-02 -3.52636836e-02  9.29284934e-03
  2.90905382e-03 -2.93875057e-02 -6.41397238e-02  2.53393631e-02
 -6.84754178e-02 -7.51503035e-02 -6.28109574e-02 -1.02304807e-02
 -3.61277871e-02 -5.25602587e-02 -8.68279114e-02 -6.28750101e-02
 -5.27342334e-02 -5.31114414e-02  2.37015095e-02 -1.30224950e-03
 -3.55215520e-02  2.98032351e-02  2.72907875e-03 -4.04579081e-02
 -9.07587707e-02 -1.01160444e-02 -3.32059041e-02 -4.02590819e-02
 -1.01155266e-02 -3.17744687e-02  1.01211565e-02  2.27082558e-02
 -6.56019077e-02 -3.76245566e-02 -1.04041375e-01  8.10300652e-03
  3.60042639e-02 -8.60321894e-02 -7.10319281e-02 -6.23730011e-02
 -5.64056635e-02  1.18989423e-02 -3.45597900e-02  8.04581959e-03
 -8.77679065e-02 -6.74959794e-02 -4.85087372e-02  1.64945740e-02
 -2.89191734e-02 -8.46527610e-03  2.48425491e-02 -1.06688425e-01
  2.07015444e-02 -3.83429639e-02 -4.96889725e-02  2.32891669e-03
 -8.45554247e-02 -7.34143481e-02 -3.62000987e-02 -2.97427848e-02
 -3.97257432e-02  6.71777781e-03 -5.93316332e-02 -6.21961504e-02
 -9.01826993e-02 -8.42534006e-02 -6.60687173e-03  3.08107045e-02
  2.64146049e-02  2.73454878e-02  6.18455606e-03  1.99501999e-02
 -7.36962482e-02 -4.98055033e-02 -6.96201995e-02 -3.30289118e-02
 -2.98964567e-02  2.29227506e-02 -6.23401888e-02 -6.83865175e-02
  2.83028930e-02 -6.24865666e-02 -2.38184468e-03 -6.37369603e-02
  1.51628302e-02 -6.68096617e-02  3.08276378e-02  7.12616974e-03
 -3.86541486e-02  2.52107661e-02 -7.22208694e-02 -7.47584924e-02
 -3.67869399e-02 -4.54813801e-02 -1.50007261e-02 -7.84705728e-02
  3.57440766e-03  2.50665136e-02 -9.83895138e-02 -6.29304126e-02
 -8.31064861e-03  7.17749214e-03 -2.19324268e-02  1.92723013e-02
 -8.67081061e-02 -1.38475420e-02 -1.78210884e-02 -2.06269566e-02
 -2.79625747e-02 -2.55421195e-02  1.41251262e-03 -3.39370929e-02
 -6.50761202e-02 -2.10793745e-02 -4.30833511e-02 -4.86105420e-02
 -5.40457964e-02 -7.79591082e-03 -8.52388963e-02 -4.35222983e-02
 -8.07638988e-02 -9.68383625e-02 -4.97728139e-02 -1.75620727e-02
 -4.82217371e-02 -1.15848603e-02 -5.73969120e-03 -9.04274136e-02
  8.28073081e-03 -1.37218358e-02  2.39914171e-02 -5.92678636e-02
 -4.09637429e-02 -9.42979753e-02 -9.35421884e-02 -3.29002477e-02
  2.26407335e-03 -8.08684826e-02  1.31592155e-02  1.95975900e-02
 -9.20139719e-03 -2.02841368e-02 -3.37052979e-02 -4.03583311e-02
  1.26446895e-02 -7.06257522e-02 -9.70048234e-02 -7.63514340e-02
 -5.71554080e-02 -2.67767943e-02 -1.46371941e-03 -7.28651062e-02
 -3.60840745e-02 -8.97644088e-02  3.47484741e-03  2.28866581e-02
 -6.04340024e-02 -3.25270183e-03 -1.32605247e-02 -7.20770359e-02
 -1.03765018e-01 -7.86458850e-02 -7.07444772e-02  2.84113130e-03
  1.74601432e-02 -1.33909462e-02 -2.79536806e-02 -6.15223981e-02
 -3.51794101e-02  6.61205873e-03 -1.26206223e-02 -3.87512669e-02
 -6.11147359e-02 -7.86863565e-02  5.13791945e-03 -1.01260832e-02
 -5.28012440e-02 -6.92015812e-02  2.14868262e-02  8.10258836e-03
 -1.01180319e-02 -8.99520516e-03 -4.62875664e-02  1.90661345e-02
  2.28856169e-02 -7.05296248e-02 -6.84945360e-02 -9.46926847e-02
  1.75233800e-02 -5.46832709e-03 -2.06162222e-02 -3.65639925e-02
 -5.34992553e-02 -7.78887272e-02  1.68082733e-02 -3.78230773e-02
 -5.92704639e-02  2.03302018e-02 -7.37462565e-02 -3.96376140e-02
 -6.89436421e-02 -1.28752301e-02 -4.27308213e-03 -2.95307618e-02
 -2.93050124e-03 -5.39421029e-02 -8.92429554e-04 -8.50409046e-02
 -1.44673567e-02 -3.06312870e-02 -6.78318739e-02 -1.67355128e-02
  2.01052576e-02 -7.82154442e-04 -4.27943133e-02 -5.27240671e-02
 -4.06371541e-02 -8.51748139e-02  1.66532751e-02 -7.49637187e-03
 -9.43892915e-03 -6.42130673e-02  1.19746206e-02 -6.35267273e-02
  1.25916526e-02 -7.86114782e-02  1.69067197e-02 -3.38812098e-02
 -6.38129264e-02  1.09968940e-02  7.89929833e-03 -1.03248157e-01
 -1.06050193e-01 -5.69009818e-02  9.55111347e-03 -8.85059405e-03
  1.55365150e-02 -5.68608567e-02 -7.00525194e-02 -2.55713053e-02
 -1.65629899e-03 -3.74883413e-02 -1.75547935e-02 -7.70186037e-02
 -2.08246130e-02 -1.00823298e-01 -4.71149012e-02 -3.34784649e-02
 -3.62383649e-02 -9.65377465e-02 -3.37132178e-02  9.09003150e-03
 -1.04763441e-01 -6.50034146e-03  3.52049582e-02  6.87235966e-03
 -4.50635795e-03 -2.09670048e-02 -8.42626542e-02 -5.01927771e-02
 -1.07555799e-01 -2.64592767e-02 -6.80147856e-02 -4.49761190e-02
 -4.52506430e-02 -2.59278696e-02 -4.86162025e-03 -5.19995838e-02
 -4.75929752e-02 -2.81058848e-02  2.67823674e-02 -6.13933057e-02
 -5.95888421e-02 -7.30594471e-02 -1.00961387e-01 -3.03808022e-02
 -7.51483291e-02 -6.48362711e-02 -4.77442965e-02 -5.30627742e-02
 -7.88686648e-02 -3.83494161e-02 -5.83754629e-02 -4.61028852e-02
 -2.98198350e-02 -1.79671180e-02  8.17304291e-03 -8.74155760e-02
 -4.56376970e-02  2.43274681e-02  7.92049244e-03  2.71776989e-02
  1.46762449e-02 -6.35926574e-02 -5.64905931e-04 -8.17117169e-02
 -6.93000806e-03  1.25767747e-02 -6.15162700e-02 -1.46375215e-02
 -1.01979822e-01 -7.55240675e-03 -3.71024907e-02  1.70036796e-02
 -2.53619496e-02 -3.88586968e-02 -5.68529144e-02 -5.08296303e-02
 -3.94194685e-02 -7.83769339e-02 -9.80763696e-03 -4.24230471e-02
 -6.92475736e-02 -6.53016716e-02 -7.19327554e-02  2.54257936e-02
 -1.66493133e-02 -1.02155864e-01 -6.15695938e-02 -4.91481721e-02
 -4.48372364e-02 -3.56291458e-02  2.27248650e-02 -4.60598469e-02
 -7.71047026e-02  2.24088654e-02 -6.96720183e-02 -6.33246824e-02
 -3.45398113e-02 -5.33877090e-02 -8.85253325e-02 -8.49240944e-02
 -3.89030501e-02 -1.29464325e-02  3.23300250e-02  3.24524567e-02
 -8.88301209e-02  1.07588095e-03 -3.82359279e-03 -9.74566862e-02
 -3.69989984e-02 -1.07902765e-01 -7.37658367e-02 -4.17892411e-02
  1.82654895e-02 -7.33381137e-02 -4.98349033e-02  4.87864856e-03
 -7.96450675e-03 -5.42612895e-02  4.55477042e-04 -9.00079906e-02
 -2.78551131e-02  3.24853025e-02 -5.03181554e-02 -1.02871973e-02]

Layer: encoder.4.1.block.1.2._packed_params._packed_params
Quantized Weights:
[[-10  39  -3 ...   7  10  -9]
 [ 15 -12  37 ... -10  10  10]
 [-13  22  37 ...  29 -30  49]
 ...
 [-37 -13  -4 ...  24 -29   3]
 [ 31  18 -29 ...  31  10 -34]
 [-29 -28 -27 ...  38 -61  25]]
Quantization Scale: 0.0009628683910705149
Quantized Bias:
[-1.11139668e-02  4.40440588e-02 -6.85587060e-03  3.28293107e-02
 -2.87628602e-02 -1.08086606e-02 -1.67926662e-02 -1.50052620e-05
  4.94857039e-03  4.21595620e-03  3.18794623e-02 -1.56993642e-02
 -5.14802383e-03 -1.04198921e-02 -5.35064889e-03  3.37545834e-02
 -1.14658196e-03  2.84621213e-02 -9.08161420e-03 -3.88180022e-03
  2.64326390e-02  5.40139154e-04  1.22062573e-02  2.26956606e-02
 -5.48728406e-02 -3.01402528e-03  4.69387323e-03 -5.89222182e-04
 -1.17790923e-02 -1.25335529e-02  8.49116687e-03 -3.25216353e-02
  2.74688285e-02  9.88467783e-03 -1.02768615e-02 -2.46784892e-02
 -6.00330671e-03  2.48766039e-02  7.85284769e-03  1.78266745e-02
  3.40926759e-02  1.00095691e-02 -7.69971777e-03 -3.22109200e-02
  1.03591932e-02 -1.17456149e-02 -3.11183166e-02 -2.93917228e-02
 -4.49275486e-02  1.51903750e-02 -3.51608396e-02 -1.01735452e-02
  3.20683722e-03 -2.13568867e-03 -1.28392372e-02  1.63243618e-02
 -2.73486059e-02  2.39996836e-02 -1.88018512e-02 -2.39307694e-02
  6.25439268e-03  3.65483668e-03  1.91586949e-02  4.98143025e-04
 -1.54076591e-02 -2.16651782e-02 -3.15546542e-02  1.06537603e-02
  3.08814980e-02  4.78307381e-02 -1.56358804e-03 -3.93033028e-03
 -1.14419847e-03 -1.77866220e-02 -5.06703705e-02  3.10108829e-02
 -4.32457253e-02 -3.31066065e-02  3.15259360e-02 -1.71260070e-02
  4.35998514e-02  9.22297884e-04 -1.72844362e-02 -3.02124452e-02
  1.44621488e-02  3.68100405e-02 -5.95236011e-02 -4.65893596e-02
  1.56046320e-02 -1.27617037e-02 -1.25959488e-02 -3.16069461e-02
 -2.21928619e-02  2.85653234e-03  3.13577652e-02 -1.12883411e-02
 -6.43769652e-03 -1.37291215e-02  2.37972215e-02 -3.63421775e-02
 -3.38783972e-02 -1.80787232e-04  1.87371392e-02  3.98849808e-02
 -3.68843600e-02 -2.07215250e-02 -1.26357898e-02 -4.01985422e-02
 -3.77817675e-02  9.60515998e-03 -3.28016765e-02 -1.78761017e-02
  1.47671057e-02 -1.38259269e-02  1.34121766e-02  3.96057358e-03
  9.46609303e-03 -1.43732755e-02  2.13884786e-02 -3.18179093e-02
 -1.66002885e-02  2.30345484e-02  1.73628144e-02 -5.79767488e-03
 -1.21823745e-02  7.81735778e-03 -3.92339118e-02 -4.09163982e-02
 -1.21810511e-02 -1.88834388e-02 -1.37689579e-02  1.01172859e-02
 -1.93108451e-02 -1.16949771e-02 -1.20349200e-02 -2.52544396e-02
  3.65463458e-02  7.22117070e-03  1.42684393e-02  1.86589379e-02
 -3.81192937e-02 -4.48116250e-02  2.09505837e-02  3.63022871e-02
  1.63128674e-02 -1.11751854e-02 -3.41867283e-02 -4.67469394e-02
 -2.61372030e-02  5.23224194e-03  3.47010083e-02 -1.84245296e-02
 -1.13361990e-02  1.91378035e-02 -1.84408799e-02 -9.74795688e-03
  2.20569931e-02  2.48398241e-02 -9.96321719e-03 -1.26121566e-02
 -5.95666692e-02  1.88880637e-02  9.06769652e-03 -2.98696058e-03
  1.76853314e-02  4.12365347e-02  9.89266578e-03 -7.20574632e-02
  1.27301621e-03 -1.98179930e-02 -4.23603803e-02  6.29826402e-03
 -1.27061429e-02 -1.20515376e-03 -8.98600891e-02 -5.95194437e-02
 -9.91328247e-03 -1.82370413e-02 -3.52089368e-02  7.42496643e-03
  1.59010440e-02 -2.05398221e-02  1.10045867e-03 -3.78155410e-02
  1.49343880e-02  1.30685251e-02 -3.38866971e-02 -3.65164573e-03
 -2.07845196e-02  1.28903957e-02  2.98871063e-02  1.29804378e-02]

