Layer: encoder.2.0.block.0.weight
Parameters:
[1.0682893  1.1037871  1.035016   1.055447   1.054511   1.0967985
 1.043496   1.046355   1.0423594  1.0330442  1.0686754  1.0464613
 1.0284772  1.0409333  1.0376205  1.0527487  1.0339824  1.0382776
 1.0693052  1.0516275  1.0870174  1.0546079  1.0514549  1.0133438
 1.066638   1.0618436  1.0166842  1.0882801  1.0737557  1.0406785
 1.0546577  1.054806   1.0305924  1.0189408  1.036147   1.0457203
 1.0165726  1.0672069  1.0637819  1.0604391  1.029608   1.0497016
 1.0918784  1.0701188  1.0854241  1.0412574  1.0158552  1.0238755
 1.0166396  1.0809327  1.0414902  1.0554607  1.0513258  1.0282888
 1.0021197  1.029752   1.0210625  1.050187   1.059591   1.0428463
 1.069172   1.0471714  1.0645365  1.0870599  1.0801417  1.0581653
 1.0662878  1.0357052  1.076354   1.0414615  1.0337194  1.0297536
 1.0500412  1.0724181  1.1177647  1.0710801  1.0815142  1.0111991
 1.0683819  1.0698984  1.013145   1.0371968  1.0204935  0.99012214
 1.0182254  1.0343189  1.0691568  1.0715456  1.0383589  1.0586275
 1.0698147  1.0338181  1.0444636  1.0452743  1.0464574  1.0413185
 1.0643083  1.0003486  1.0595549  1.0189856  1.0605229  1.0159836
 0.9935843  1.0769662  1.067287   1.0237699  1.0453087  1.0251871
 1.0622554  1.0521265  1.0450282  1.0458744  1.1071826  1.0517461
 1.0280715  1.0441241  1.059707   1.0748506  1.0323794  1.0576763
 1.1064674  1.0629346  1.0857612  1.0406215  1.0874951  1.0767581
 1.0578998  1.0378145  1.0388161  1.0466673  1.0440227  1.044176
 1.0870135  1.0863578  1.0347728  1.0399306  1.0826764  1.015025
 1.0477872  1.0100625  1.0656047  1.0409527  1.0152173  1.0352801
 1.028112   1.0666928  1.0512189  1.0562874  1.0401624  1.0477759
 1.0174005  1.0094148  1.0655711  1.0312786  1.0458666  1.0305775
 1.0728282  1.0464545  1.0713865  1.075735   1.0681958  1.0777564
 1.0565931  1.0521358  1.0196124  1.0586253  1.0045364  1.0909052
 1.0368882  1.0133711  0.98975456 1.0395788  1.0366458  1.0564502
 1.0528109  1.0105602  1.0320737  1.0341835  1.1134514  0.9965712
 1.0752631  1.0764945  1.0381817  1.0452888  1.0384939  1.0470558
 1.0371335  1.0347253  1.0596905  1.0563289  1.0755771  1.0350058 ]

Layer: encoder.2.0.block.0.bias
Parameters:
[-3.64459422e-03 -6.58805482e-03 -1.19859669e-02 -2.49726349e-03
 -9.99236759e-03 -1.42910676e-02  1.75674222e-02 -1.61879882e-02
  3.19856685e-03  1.40557913e-02 -5.98090235e-03 -1.77763570e-02
 -1.04767818e-03 -2.11147629e-02 -6.96713396e-04 -2.74203881e-03
 -1.91778764e-02 -6.85253693e-03  1.48478188e-02  1.58953834e-02
  1.10050179e-02  5.68780955e-03 -6.95633143e-03  5.93408011e-03
 -1.03666773e-02 -1.34435389e-02  3.86903249e-03 -3.03167515e-02
  1.34014953e-02  5.85405855e-04  1.11990236e-02  8.05111043e-03
  2.48583592e-03 -1.87454075e-02  2.12553348e-02  5.92709519e-03
  1.10170431e-02  1.41851045e-03  1.51756115e-03  1.55046843e-02
 -8.59120209e-03 -1.64860860e-02  2.21435018e-02  5.10685425e-03
 -3.17074768e-02  2.05723755e-02 -2.26946175e-02  1.09782265e-02
 -6.95929164e-03  2.72566662e-03  2.34233532e-02  1.33755747e-02
  9.10659600e-03 -1.37117866e-03 -1.58616193e-02  2.04196256e-02
  2.22547282e-03 -7.16011040e-03  7.57662463e-04  1.20899053e-02
  9.91603173e-03 -9.53569636e-03 -2.35615019e-03 -5.78542799e-03
 -1.18882838e-03 -1.31364074e-02  1.26785729e-02  1.93962222e-03
  2.37400830e-02 -3.26422579e-03 -1.48363793e-02 -6.97391294e-03
 -1.76191181e-02 -1.83510780e-02  2.70365248e-03  2.77288957e-03
 -7.63641438e-03 -9.25610494e-03 -1.89535338e-02  8.05068854e-03
  1.17463944e-02  1.19245239e-02 -3.18884924e-02 -7.44549977e-03
  9.73015651e-03 -1.32320793e-02 -1.41251022e-02  2.17571929e-02
 -1.05734169e-02  3.50747164e-03 -3.27318907e-02 -7.23856036e-03
  2.02039015e-02 -1.09771350e-02  1.51151698e-02  2.54502194e-03
 -4.15204791e-04 -1.06029697e-02  6.19868748e-03 -1.34710493e-02
 -2.68343724e-02 -1.67100020e-02  1.66584307e-03 -1.34135699e-02
  1.39794163e-02  2.41772681e-02  6.16606651e-03 -7.48730265e-03
  1.70360394e-02 -7.89631438e-03 -7.37290713e-04  2.23949105e-02
 -1.70115277e-03  1.16851805e-02  2.22017132e-02 -2.00071838e-02
  1.06182816e-02 -1.76214706e-02  6.33197045e-03  2.03320384e-02
 -1.72179770e-02 -5.44987293e-03 -1.06152510e-02  6.48705848e-03
 -2.28547174e-02  5.49211912e-03  5.42719616e-03 -2.94745751e-02
 -2.27234773e-02 -2.88471673e-03 -9.69293620e-03 -5.80186164e-03
 -5.42113604e-03 -9.96347796e-03  1.98869705e-02 -1.07919620e-02
 -1.33092729e-02 -9.62276570e-03 -8.70955922e-03 -1.82526577e-02
  4.47293743e-03 -5.86489961e-03  1.62575189e-02 -1.69756301e-02
 -1.85174728e-03 -4.06301394e-02 -8.22441559e-03  1.84197389e-02
 -4.08260850e-03 -6.91017555e-03 -2.21726820e-02 -6.36094296e-03
  2.61257105e-02 -9.15808883e-03  2.02420331e-03 -1.83037878e-03
 -1.49357403e-02 -2.77116429e-02 -2.28223996e-03 -2.71356897e-03
 -6.85651274e-03 -9.47927777e-03  5.07003814e-03 -1.95380617e-02
 -2.44756564e-02  1.33356303e-02 -1.29657639e-02  1.77171966e-03
  2.45385394e-02 -3.33614502e-04  2.69726999e-02 -6.53647236e-04
  1.47549231e-02  1.82341901e-03  7.76484562e-03  7.72960670e-03
 -1.37249334e-02  4.28515393e-03  2.45332043e-03  1.08802281e-02
  5.02555119e-03  2.14040633e-02  2.11535092e-03 -1.79174170e-02
 -1.53923621e-02  2.09121909e-02 -8.41006578e-04 -3.73628363e-02
  9.30167921e-03 -5.05537726e-03  6.38136844e-05  1.86576750e-02]

Layer: encoder.2.0.block.1.queries_projection._packed_params._packed_params
Quantized Weights:
[[ 39  33 -12 ...   3   8  31]
 [ 11  50  29 ... -22 -36  24]
 [-71  56  25 ... -56  30 -73]
 ...
 [ 43  -5  11 ... -12 -17   0]
 [ 27  -3  36 ... -72 -20   8]
 [  3 -20  26 ...  28 -12  12]]
Quantization Scale: 0.0016892320709303021
Quantized Bias:
[-0.04737196 -0.05913272  0.03538749  0.03557942  0.00467601 -0.02567882
 -0.04534177 -0.01164532  0.03560883  0.01997252  0.03285275 -0.01470946
  0.0399152  -0.04671016  0.02705139 -0.0448746  -0.05621238  0.05058127
  0.03649357 -0.0007488  -0.00832737 -0.06644068  0.01887513 -0.02146703
  0.01047839  0.05150455 -0.01463128  0.03003245  0.04507305  0.01796328
 -0.02431452  0.05504474  0.08501124 -0.0166679  -0.04058621 -0.04149698
  0.05172587  0.00904273  0.0246402   0.04733088 -0.06795503 -0.03639138
 -0.02023325  0.05988662  0.03588226  0.03146918  0.02837531 -0.0043352
 -0.05195137  0.0522218  -0.08292529  0.04164177  0.05772642  0.04266083
  0.02618307  0.10263058  0.03396071 -0.04642624 -0.02283502 -0.04038962
 -0.00232904  0.02222264  0.00284791  0.04799577  0.02127661 -0.00955059
  0.03746092  0.04455778  0.08041468 -0.09405463 -0.02181008 -0.08782129
  0.00115979 -0.03359025  0.00207033  0.04368018  0.00267012  0.06925521
 -0.05313959 -0.02267394 -0.06365974  0.01960521 -0.05258301  0.0869005
  0.04104664  0.02742403  0.08089914 -0.06113687 -0.04923374 -0.11597416
  0.00943958 -0.03854293  0.07388271  0.0548892   0.05101025  0.03563272
  0.13538136 -0.01063007 -0.04437589 -0.03985074 -0.04368418  0.05020117
 -0.02096955  0.06810439  0.05572605  0.00024109  0.01058498 -0.05454265
 -0.06450231 -0.00853653 -0.02729196  0.02784546 -0.07897802 -0.04404903
 -0.00458923  0.08957366  0.00926436 -0.10860154  0.03404745  0.0216708
 -0.120107    0.08369685 -0.00371643  0.01023537 -0.05065058  0.04864507
 -0.03948323 -0.01024212  0.00115706 -0.02015105  0.03603726  0.00572415
  0.02829374 -0.0505938   0.03845403 -0.0978745  -0.03043011 -0.03807892
  0.03045372  0.06147536  0.00776481  0.01036455  0.0819141  -0.0787771
 -0.05330192  0.04451139  0.04332858 -0.03957777 -0.04873452 -0.08386108
 -0.04829386  0.01892404  0.04559231 -0.01829808  0.04050937 -0.06147695
  0.09459141 -0.06625193 -0.00712937 -0.04894269 -0.0027164   0.04883079
 -0.00592041 -0.02396391 -0.07786658 -0.02308487  0.0443435   0.05532278
 -0.07289539 -0.0794469   0.03823335  0.03301345 -0.00443484  0.01380884
 -0.0114947  -0.04359294 -0.03897123 -0.0644073   0.02456348  0.01774271
 -0.01864263 -0.02773335 -0.03049414 -0.07106864 -0.02466935 -0.05749344
  0.02786358 -0.04147824 -0.04865986  0.03165751 -0.00347686  0.07841124]

Layer: encoder.2.0.block.1.values_projection._packed_params._packed_params
Quantized Weights:
[[  8   6  30 ...  22 -28 -12]
 [ 29  -2  47 ...  10  15 -20]
 [ 31   9 -32 ... -40 -20  15]
 ...
 [-42  -7 -15 ... -27 -14  -3]
 [-20 -19 -21 ... -15 -18  18]
 [ 28  -7 -16 ...  -9  16   3]]
Quantization Scale: 0.0023588594049215317
Quantized Bias:
[ 0.03339175 -0.06996632  0.03356126  0.06977923 -0.06223547 -0.02271459
 -0.0196195   0.06942701  0.01441112  0.01583623  0.00846346  0.02831323
  0.02053682 -0.05899526  0.01638707  0.01622085  0.01636404 -0.00966026
 -0.03090413 -0.00196059 -0.0551138  -0.03236726  0.06871121  0.02766701
 -0.00706914  0.06298053 -0.00327827  0.03827038  0.00458705  0.01377908
  0.05494282 -0.01846111  0.02591445  0.05382731  0.0658593   0.01925362
 -0.03855832 -0.05311159  0.02285382 -0.0027505  -0.0135893  -0.02040224
 -0.0063173  -0.04792051  0.00072811  0.01204214 -0.01978992 -0.02015751
  0.05241207  0.02275085 -0.01031988 -0.06857182  0.02243549 -0.04948319
 -0.03556725  0.00224246 -0.01957917  0.0594199   0.02176124 -0.04057653
  0.05662831 -0.05064372 -0.05359533 -0.04490145  0.01772043 -0.05232352
 -0.0096786   0.0093818  -0.02951093  0.05032819  0.03408169 -0.06650437
 -0.0504566  -0.04699612 -0.03931276  0.04032327  0.03252948 -0.04550255
  0.05719212  0.06510245  0.06648272 -0.02281317  0.04731246 -0.07051618
  0.01445638  0.03822144  0.06081973  0.00211748 -0.05922098  0.05644825
  0.0702758  -0.04224177 -0.0617013   0.04394517  0.04209678  0.00458086
  0.02630204 -0.03495754 -0.01009594  0.06394264 -0.01790742 -0.08026522
  0.05151834  0.00398034 -0.03443334 -0.00433246  0.04494619 -0.08104491
 -0.04408916  0.04283926  0.0662771  -0.00985688  0.00071761  0.02566676
  0.00291751  0.05518879  0.00341893 -0.050901   -0.02037246 -0.0625528
  0.02956509  0.05124579  0.02088198  0.04359297  0.06135885  0.01747866
 -0.01472004  0.05176188 -0.0604215   0.01486624  0.0487978   0.01783054
 -0.00271039 -0.04711668 -0.04638001  0.04603784 -0.05984398  0.05746898
  0.05609908 -0.05569908 -0.05665588 -0.00014455 -0.00369012 -0.04569893
 -0.05476243 -0.00791055  0.0359461   0.08329028 -0.01243063  0.00476372
 -0.0096482  -0.04424519  0.0693748  -0.05575733  0.02054094 -0.05890829
  0.02191345  0.06246827  0.01784922 -0.07673629  0.00732998 -0.0542182
 -0.01292792 -0.0289854  -0.06735375  0.01219587  0.05060599  0.03204393
  0.03768834 -0.02075692  0.00841589 -0.02905295 -0.03534427  0.03440222
  0.06487893 -0.04163967 -0.09407906 -0.02237399 -0.04701125  0.05125785
  0.04208979 -0.04704451  0.02799399 -0.02812307  0.03375587 -0.06154473
 -0.04263298 -0.03431277 -0.01230908 -0.01989581 -0.06078188 -0.00345104]

Layer: encoder.2.0.block.1.keys_projection._packed_params._packed_params
Quantized Weights:
[[ 67  12 -19 ...   9  23 -49]
 [ 16  -5  -7 ...  14 -28  45]
 [ 58 -17  20 ... -34 -36  50]
 ...
 [-15 -38  -6 ...  19 -32 -21]
 [ 35  22 -46 ... -35  25  31]
 [-48 -17 -16 ...  22  -8 -49]]
Quantization Scale: 0.001520564896054566
Quantized Bias:
[ 0.01363599 -0.05285943  0.03677953 -0.02574521  0.01465749 -0.04933456
  0.03470313  0.06356808  0.02180151  0.00840845 -0.04821907  0.00487882
  0.06944637  0.01632305  0.01878435 -0.00619518 -0.05194944 -0.01707887
 -0.02535174 -0.06722633 -0.0328062   0.0410329  -0.00300828  0.04810284
 -0.03761219  0.02416009  0.03581803  0.05467755  0.04843514  0.03129464
  0.06291182  0.00858458 -0.02499348  0.00254308  0.02462264  0.01030085
  0.02880074  0.06170465 -0.03083338 -0.03699472 -0.06107212  0.06836514
  0.060515    0.00941186  0.05881867 -0.0439026   0.04549581  0.03963139
  0.03258464  0.00980528  0.01605015 -0.01777848  0.00388986 -0.03387211
 -0.01413218 -0.07225548  0.0199692  -0.03736179 -0.06558839 -0.06118958
  0.06592338 -0.02007538 -0.06419329 -0.030276    0.06436827  0.01770756
  0.02478518  0.02409802 -0.05795664 -0.06731794 -0.05288649  0.04669138
 -0.07956847  0.07679943  0.05896364  0.04386446  0.05541679 -0.01612412
 -0.04785934  0.07759562  0.03701158 -0.00034192  0.00226527  0.04126574
  0.00231282  0.04030608 -0.08432037 -0.0132128   0.0639791   0.05125019
 -0.02511072 -0.03133095 -0.0568335  -0.0678194  -0.05022468  0.04879632
 -0.0196001  -0.02583913 -0.04782611  0.00268133 -0.01218422 -0.07877224
  0.02082198 -0.02443436  0.0265052  -0.02760418  0.02205547 -0.04749354
 -0.01019175 -0.05553174  0.04050793  0.04498253 -0.00120618 -0.00885975
 -0.04519565 -0.05967236 -0.08080776  0.03647308  0.03533098 -0.00929978
  0.07119101  0.0677538   0.05079585 -0.07627934  0.0576835   0.03902908
  0.05412773  0.03026729 -0.0260773  -0.03310212  0.01526628  0.036456
  0.05674727  0.01879149 -0.06396827 -0.03699909 -0.0631361   0.041291
 -0.01542585  0.02779199  0.03875714  0.04801211 -0.00875408  0.06348739
 -0.07458377  0.03649875  0.05547469  0.07877667  0.03259354 -0.02435945
  0.0672509  -0.05328271  0.02553806 -0.07213429  0.05014746 -0.01501721
  0.0508327   0.05809345 -0.03356553  0.04197621 -0.06525308 -0.00840392
 -0.03158988  0.029672    0.0496066   0.07664867 -0.00137485 -0.01945335
 -0.05596724 -0.01494084  0.04083063  0.02321739 -0.01349944 -0.01924891
  0.03764187 -0.03249142  0.05426904  0.01065784 -0.06784436 -0.05766567
 -0.06473934  0.02663054  0.03263354 -0.06660283  0.05464363  0.03136809
  0.01822974  0.04362604  0.00613287  0.02920217  0.06341696  0.01068254]

Layer: encoder.2.0.block.1.final_projection._packed_params._packed_params
Quantized Weights:
[[-15  12   1 ...  12  13 -25]
 [ 41  10  24 ...  24  -7  48]
 [-20  32   9 ...  18  -2  19]
 ...
 [-25  46  19 ... -55   4  -9]
 [-21  14  23 ...  21 -29   9]
 [ 37 -32  -2 ...  31 -21  20]]
Quantization Scale: 0.0023687107022851706
Quantized Bias:
[ 0.06298248  0.00403428  0.00368556  0.07598712  0.00857168 -0.03671031
 -0.02393779  0.04660761  0.00089258 -0.06724958  0.05399238  0.0512183
 -0.01573815 -0.05888715 -0.02035905  0.06090066  0.028439    0.03520731
 -0.04089982 -0.04710001  0.0191452  -0.00876257 -0.04590766  0.06960847
 -0.04611126 -0.05305649 -0.01343337  0.04395001  0.03461254  0.07400922
  0.05067196  0.05143142  0.02383496 -0.04142923 -0.0549375  -0.06027071
  0.05187801  0.00196747  0.03934003  0.05821392 -0.03648778 -0.06329009
  0.07120788 -0.0013285  -0.0012327   0.03722854 -0.07752941 -0.02811257
 -0.02507154  0.02502226  0.027106   -0.03676904  0.04240608  0.07919992
 -0.07284372 -0.0266494  -0.02522726  0.04352716 -0.02922677 -0.04971299
  0.04316818  0.01357498 -0.05276733 -0.02885235  0.00156312  0.03044516
  0.03482588  0.02374574 -0.07152657  0.04539362 -0.03127791  0.00316701
  0.02297676 -0.03069471  0.05010185 -0.06575604  0.03806137  0.0276597
 -0.04066977  0.02177541  0.00691038  0.00592418 -0.06066335 -0.04364455
 -0.06484372 -0.01995913 -0.07762583 -0.02368241  0.0540585  -0.03394258
  0.01104175  0.0450374  -0.04445759  0.01911227 -0.01976779 -0.01136753
 -0.04573573  0.0549269  -0.00270847 -0.03693029  0.0046001   0.0662227
  0.08269794  0.00192519  0.05410874  0.02940172  0.0189513  -0.02449761
  0.03627212  0.031285   -0.03822219  0.05615163  0.02993141 -0.04802888
  0.05697885  0.03100343 -0.01643393  0.00466342  0.02746687  0.02954836
  0.01178011 -0.00772022 -0.05021863  0.04333867  0.04305548 -0.04521788
 -0.04610957 -0.02054725  0.00515024  0.04290485  0.00693787  0.04557198
  0.04108529 -0.07091025 -0.0430277   0.03991276  0.04141288  0.02319466
 -0.05818053  0.00791638 -0.01474351 -0.06792687 -0.04285725  0.06087451
  0.06503379 -0.02414121  0.06966557 -0.08025334  0.03506808  0.05462211
  0.06097915 -0.00451377  0.02514157  0.02178536  0.00441263 -0.05791618
 -0.01202345  0.00606715  0.05055423  0.04504183 -0.07089331  0.07909938
  0.0352211   0.08605496  0.02074454 -0.0519573   0.04440525  0.0136869
  0.06315938  0.03739057  0.01990142  0.05409233 -0.06555993  0.00151897
 -0.0802555  -0.05426392  0.04328167  0.00766428 -0.03563683 -0.0133721
 -0.04701786 -0.04277907  0.01646494 -0.05773935  0.00351811 -0.06014017
  0.02315227  0.02471831 -0.00159629 -0.03890673  0.04474055  0.02660709]

Layer: encoder.2.1.block.0.weight
Parameters:
[0.96037626 0.97015435 0.96253556 0.98987716 0.9429791  0.92652225
 1.0174325  0.97714496 0.98633397 0.9299404  0.90820944 0.9837687
 0.9573411  0.97144735 0.93922865 0.98983395 0.97045493 0.99830896
 0.98416495 0.94856554 0.98370045 0.9831145  0.9412562  0.9383399
 0.99209046 0.969017   1.0002618  0.9383346  0.97388554 0.980474
 0.92836046 0.9039108  0.9758954  0.9462805  0.98615414 0.9300515
 0.9798943  0.9204197  0.96510786 1.0066124  0.9677937  0.9732774
 0.91332674 0.99888825 0.8607782  0.96065795 0.9630256  0.92961454
 0.97416866 0.98740834 0.9096024  0.9726721  0.9305928  1.0065255
 0.91933227 0.9623286  0.9912627  0.91120183 0.9507232  0.9679495
 0.9671627  0.99721366 0.9646101  0.99023426 0.95519894 0.92712593
 1.0273515  1.012902   0.9818744  0.99667543 0.9748557  0.9530176
 0.97451216 1.0167192  0.98109245 0.9866525  0.95213497 1.0275742
 0.9552834  0.95147306 0.93953365 1.014365   0.97512513 0.9910205
 1.0008259  0.98061574 0.93290293 0.9615751  0.94345754 0.91076255
 0.9094232  0.9640118  0.9496088  0.94406706 0.9270162  0.9558541
 0.92116606 0.9691446  0.95729715 0.9844774  0.9952624  0.9698374
 0.9845114  0.9762836  0.96306014 0.9563265  0.9386078  0.98526794
 0.98867935 1.0120623  1.0005652  0.94009644 0.9388309  0.9855365
 1.0012562  0.9376079  0.98287594 0.9425434  1.0040458  0.921026
 0.9428018  0.95733166 0.9648791  0.9722895  0.8837347  0.98050976
 0.94050765 0.98762894 0.95523614 0.89519954 0.9806422  0.9425469
 1.0285969  0.9927603  0.9901632  0.9659971  0.9685693  0.94357926
 0.9855774  0.9318511  0.92923373 0.9355551  0.9363068  0.94272256
 0.94488716 0.9451743  1.0231217  0.96250004 0.9426322  0.96565896
 0.99194884 0.94935703 0.9340462  0.9808869  0.9801511  0.96162903
 0.98719686 0.9853366  0.96514976 0.99148524 0.92234784 0.9705317
 1.0201713  0.9494361  0.9347191  0.95199835 0.98048985 0.9438266
 0.91693383 0.92685395 0.94841343 0.9434992  0.9930738  0.9783602
 0.9132176  0.952782   0.99322975 0.9208242  0.9833217  1.0210059
 0.95819765 0.9615784  0.93010235 0.9771082  0.96858245 0.97617275
 0.9567967  0.92463917 0.9792608  0.988986   0.94670534 0.95115554]

Layer: encoder.2.1.block.0.bias
Parameters:
[ 6.50643855e-02 -4.23601530e-02 -3.39136720e-02  7.60338083e-03
 -3.85455415e-02 -1.59698036e-02 -1.96196586e-02 -6.53034123e-03
 -4.44706567e-02  3.90394703e-02 -2.08191387e-02  6.01890013e-02
 -5.47020696e-02  5.54130820e-05  4.05135527e-02 -6.41398355e-02
 -7.01018348e-02 -7.31421039e-02  3.47830988e-02  5.91853857e-02
 -3.85836475e-02  5.77598847e-02 -7.46619515e-03 -3.71173508e-02
  3.90000865e-02 -4.16523591e-02 -7.72025660e-02  1.26605039e-03
  2.73338314e-02 -5.66735603e-02 -3.35398875e-02  6.55843318e-03
  3.90055776e-02 -1.37951691e-02 -5.44484854e-02  4.72858809e-02
 -3.20242904e-02 -3.57631408e-02  6.17439626e-03 -4.19482216e-02
 -2.35563405e-02 -5.37043288e-02 -3.35875228e-02  3.63795646e-02
 -1.56462826e-02 -1.15275395e-03  5.06957248e-02  7.30244303e-03
  5.13720475e-02 -3.76934484e-02  8.92514363e-02  1.00232502e-02
  6.26791194e-02 -4.96372357e-02 -2.61889733e-02  2.90241670e-02
  3.04820612e-02  8.21816083e-03 -2.61547510e-02 -6.58978596e-02
 -6.13112375e-02 -7.17118382e-02 -6.78644795e-03  4.70983572e-02
 -6.45544427e-03 -3.84961143e-02 -3.81592847e-02  6.12363927e-02
 -3.28101553e-02 -4.58179973e-02 -4.83812168e-02 -3.51583660e-02
 -3.19570042e-02 -3.28963175e-02  3.78453955e-02 -5.54242991e-02
 -2.03037495e-03  5.84657080e-02 -3.26275118e-02 -1.92507524e-02
 -4.45538498e-02 -3.32529917e-02  4.04404290e-02  5.07068858e-02
 -6.41820952e-02 -5.01387790e-02  2.29506847e-02  1.51177235e-02
 -6.92970604e-02  4.65523489e-02 -3.26097421e-02 -1.12733813e-02
  6.21318445e-02 -3.74343209e-02 -1.74026210e-02  7.05045536e-02
 -7.34896073e-03 -3.79030444e-02 -4.99941595e-02 -1.10320542e-02
 -4.25022431e-02 -2.40602810e-03 -1.14700594e-03 -5.15404120e-02
  5.57969883e-02  4.87781130e-02  5.43776788e-02  4.45490107e-02
  6.18939884e-02 -7.88286235e-03  7.57307373e-03 -3.04388651e-03
 -3.82470712e-02 -3.51894908e-02 -2.34812535e-02 -5.74377179e-02
  3.54703479e-02 -2.34157108e-02 -3.05796526e-02 -2.69362703e-02
  5.32031152e-03 -1.90792046e-02 -1.48389069e-02  6.49903566e-02
 -7.89953556e-05 -3.32382135e-02  3.42949815e-02  2.39538793e-02
  4.63437587e-02 -3.81282233e-02  6.17883094e-02  2.62780450e-02
 -2.43474562e-02 -5.83741143e-02 -4.17381860e-02  3.79288159e-02
 -3.01993787e-02  2.39787064e-02 -4.96909469e-02 -2.28628498e-02
 -2.78033279e-02  2.94647925e-02 -6.23599179e-02 -1.87452312e-03
 -1.27990972e-02  7.17321411e-02  2.11078376e-02  3.70937474e-02
 -1.62145756e-02  3.59278247e-02 -3.65878083e-02 -1.98675226e-02
 -6.88860985e-03 -4.25184034e-02  4.79420535e-02  2.50288262e-03
  4.45592552e-02 -4.58207875e-02 -5.50001897e-02 -6.05840869e-02
  2.91163679e-02 -3.56377475e-02 -7.93116987e-02 -9.01491418e-02
 -2.00681705e-02 -9.82505362e-03 -5.00907265e-02  6.52049705e-02
 -8.58328864e-02  2.28957385e-02  2.16965638e-02 -1.89048704e-02
 -2.95278002e-02 -8.78656190e-03  2.64208727e-02  2.29578391e-02
  8.46548527e-02  2.26939991e-02 -6.01243451e-02  4.61896844e-02
  6.10331818e-03  5.24768010e-02 -1.46668358e-02  5.01285233e-02
 -1.60599072e-02 -5.38084880e-02 -4.04689498e-02 -2.73709949e-02
  4.53551412e-02  5.56758754e-02  3.99385281e-02  4.60234061e-02]

Layer: encoder.2.1.block.1.0._packed_params._packed_params
Quantized Weights:
[[-14 -30 -28 ...  10 -55 -39]
 [ 24  35 -11 ... -28 -36 -24]
 [-18  17 -44 ...  -3  -6 -46]
 ...
 [-39 -20  41 ... -35 -15  20]
 [ 28 -22  18 ...   6 -42  36]
 [-17  38  33 ...   6   0 -24]]
Quantization Scale: 0.0016368464566767216
Quantized Bias:
[-6.28252998e-02 -5.99247441e-02  1.96889453e-02 -1.05002292e-01
 -1.26237012e-02 -4.61996271e-04 -6.04028292e-02  4.30603139e-02
 -6.03157468e-02 -1.17868045e-02 -1.21643925e-02 -8.88901111e-03
  1.66184618e-03 -3.56615148e-02 -7.22559765e-02 -6.77204132e-02
 -5.98314963e-02  1.05161300e-04 -1.65337347e-04  6.90057059e-04
 -4.88490909e-02 -2.11318582e-02 -9.70147923e-02 -3.14894645e-03
  8.01667571e-03 -7.50497878e-02 -5.20748794e-02 -6.40447736e-02
 -1.65185630e-02 -1.00340478e-01 -1.97440572e-02  1.45798558e-02
 -9.60536897e-02 -7.98132867e-02 -1.55112389e-02 -5.14134392e-02
  3.58853191e-02 -3.91625427e-02 -1.80439856e-02 -4.75748703e-02
 -6.04034364e-02 -5.16875051e-02 -1.28399860e-02 -5.04847616e-02
 -5.04255034e-02 -5.37540652e-02  1.55821471e-02 -8.29610676e-02
 -3.95036563e-02 -5.38553074e-02 -3.24794427e-02 -5.04217707e-02
 -5.46407029e-02 -6.56018546e-03 -9.48621519e-03 -5.41228689e-02
 -3.79849449e-02  1.93067268e-02  1.97613356e-03 -7.87459761e-02
 -4.00722551e-04 -9.41025019e-02 -5.12135699e-02 -5.21065574e-03
  4.31287177e-02 -6.13215193e-02 -7.68792257e-02 -4.37153131e-03
 -1.85871143e-02 -1.16192605e-02 -2.27413513e-02 -2.73084850e-04
 -7.48326555e-02 -3.77314501e-02 -7.10291862e-02 -3.40700746e-02
 -5.72075993e-02 -5.82132004e-02  2.46896502e-02 -4.67696004e-02
 -7.30896294e-02 -5.42614870e-02 -1.56760216e-02  1.14945276e-02
 -6.84729517e-02 -6.40942305e-02 -8.73069614e-02 -5.99108599e-02
 -3.54898199e-02 -3.67385242e-03 -2.71892697e-02 -1.12249918e-01
 -1.18383290e-02 -2.49175876e-02  6.45072060e-03 -3.83143760e-02
 -3.95892449e-02 -9.55058262e-03 -1.84356105e-02  1.50147313e-02
  3.48507874e-02 -5.90900471e-03 -2.14727949e-02 -9.34838206e-02
 -7.78765529e-02 -4.12276536e-02 -1.39019871e-02  1.94341373e-02
 -9.21689942e-02 -2.19164696e-03 -8.87538940e-02 -7.61314109e-02
 -1.25829754e-02 -3.58282328e-02 -5.31088859e-02 -1.02962956e-01
 -9.61966887e-02  7.63886003e-03  5.62911446e-05 -1.13608979e-03
  2.93645337e-02 -6.87047243e-02 -9.82360840e-02 -7.96521455e-02
 -7.10428879e-02  2.01366637e-02  1.08568957e-02 -9.03714672e-02
 -9.28128138e-02 -2.22227015e-02 -4.41163778e-02 -1.05640078e-02
 -1.37133012e-02 -2.05863304e-02 -2.03043036e-02 -5.50828166e-02
 -3.51808928e-02 -5.68962581e-02 -4.74512985e-04 -2.84636859e-02
 -6.29864037e-02  2.92433780e-02 -5.06246425e-02 -2.53607128e-02
 -2.59502046e-02 -3.54535580e-02  5.83052030e-03  1.61402039e-02
 -1.80101804e-02 -2.55051106e-02 -4.50371504e-02 -7.00275004e-02
 -8.88734497e-03  4.47760476e-03 -8.40556994e-02 -9.89212245e-02
 -9.52716544e-02  1.41741745e-02  6.08140789e-03 -5.90518191e-02
 -4.64151837e-02 -5.08035347e-02  1.97266648e-03 -7.15334294e-03
 -6.51965141e-02 -8.86032134e-02 -9.03256685e-02 -2.02308279e-02
 -7.19208568e-02 -7.94902369e-02 -3.10486238e-02  1.52239027e-02
 -4.02529277e-02 -2.69415881e-02  1.55723300e-02 -6.92616329e-02
  1.16388369e-02  4.14197100e-03  9.02976841e-03 -2.23437161e-03
 -1.07224256e-01  3.08649475e-03 -1.09915342e-02 -6.86396584e-02
 -8.16892833e-02 -1.12358473e-01  3.44937406e-02 -1.23123368e-02
 -6.60429746e-02 -7.69735267e-03  3.75145450e-02 -2.52015470e-03
 -7.26606995e-02 -7.86952674e-02  1.63263418e-02 -2.77051050e-03
  2.07640510e-02 -1.06871441e-01 -1.89054222e-03 -9.55632776e-02
  3.68412025e-03 -3.70687209e-02 -5.51529462e-03 -6.07687160e-02
 -2.09503416e-02 -6.03304207e-02 -2.19355002e-02 -1.77345648e-02
 -1.15403526e-01  4.45412956e-02  2.77434886e-02 -7.67318648e-04
 -5.53923696e-02 -7.43670017e-03 -4.62390706e-02 -5.01242727e-02
  3.13459113e-02 -2.44986312e-03 -1.73870455e-02 -3.27078141e-02
 -1.64842643e-02 -6.41762093e-02 -1.36292065e-02 -4.82122563e-02
  1.02958613e-04 -3.11712492e-02 -2.21581366e-02 -4.32685623e-03
  1.31795257e-02 -1.65597145e-02  2.01883931e-02 -3.87771539e-02
 -1.61993653e-02 -3.23122106e-02  2.58052386e-02 -5.71372285e-02
 -2.01373752e-02 -3.05566583e-02 -6.64634556e-02  3.19826491e-02
 -2.29981355e-02  1.71464495e-02 -9.48957950e-02 -1.12007320e-01
  2.38577537e-02 -2.11901087e-02 -1.64706353e-02 -8.08509812e-02
  5.42128785e-03 -1.34402502e-03  9.35850292e-03 -8.70348364e-02
 -1.02168759e-02 -2.61272751e-02 -5.76637462e-02 -3.42738330e-02
  1.65709388e-02  4.04398236e-03 -4.11390066e-02  1.88184064e-03
 -2.17985529e-02  4.04184312e-02  2.64358870e-03 -9.23045725e-02
 -9.52235386e-02 -4.75903638e-02 -5.50369080e-03 -7.19841477e-03
 -1.06782176e-01 -4.68505993e-02 -2.61374172e-02 -2.25946493e-03
 -8.04201327e-03 -4.48554680e-02 -8.92413035e-02 -6.21744767e-02
 -8.99363980e-02 -6.16596900e-02 -5.07137477e-02  3.31782037e-03
 -7.25442842e-02  1.96385533e-02 -7.90918693e-02 -9.27342474e-02
  1.03507116e-02 -6.96433634e-02 -3.41509953e-02 -4.45971526e-02
 -6.15134893e-04  4.16614227e-02 -2.62978356e-02 -1.00166902e-01
 -3.21741551e-02 -2.86584571e-02 -1.14769347e-01  1.55427854e-03
  1.23014254e-02  2.10108701e-02 -6.24908805e-02 -5.58430701e-02
 -8.64962637e-02  3.28534539e-03  1.10830599e-02 -4.39091865e-03
 -5.65539747e-02  2.13051159e-02  2.07462758e-02  3.36952903e-03
 -6.14516623e-02 -5.07764108e-02 -4.73183692e-02 -3.67998928e-02
  1.47418091e-02 -1.02508098e-01  7.24388519e-03  1.39073411e-03
 -2.98855100e-02 -8.25288296e-02 -1.19284112e-02 -1.00918092e-01
 -1.05325086e-02 -9.50687751e-02 -3.35599370e-02 -8.78555030e-02
 -7.80633464e-02 -5.23777073e-03 -8.15785900e-02 -7.98005983e-02
  9.70082264e-03 -5.33389859e-02 -8.95166174e-02 -7.73858875e-02
 -2.44508367e-02  3.42408530e-02 -1.26896135e-03  4.09555770e-02
  3.42030101e-03 -9.81110185e-02 -5.29199280e-02  9.95232631e-03
  3.54315415e-02  4.35257889e-02 -9.81962904e-02 -5.19302376e-02
 -4.67101410e-02 -1.14796367e-02 -7.60645419e-02 -4.67839763e-02
 -9.64532569e-02 -2.33663749e-02 -3.96358334e-02 -2.89499294e-02
 -7.47905001e-02 -4.84984554e-02 -2.87730582e-02 -2.02642083e-02
 -1.01336382e-01 -9.47348103e-02  1.86928362e-03 -9.19801965e-02
 -1.48613993e-02 -2.27302685e-02  4.68255952e-03 -8.31801668e-02
 -6.75489977e-02 -3.32444198e-02 -5.76695129e-02 -5.41410595e-03
 -2.08809748e-02 -2.61634821e-03  2.56864503e-02  4.48694685e-03
 -1.93512868e-02 -1.69635173e-02 -9.40101817e-02 -5.20250574e-03
 -5.62432930e-02 -9.40050110e-02  1.93247925e-02 -8.45815241e-02
 -2.10118052e-02 -2.10877042e-02 -6.64998665e-02  3.82509418e-02
  2.79489569e-02  1.36160413e-02 -2.21054330e-02 -7.09780827e-02
  3.11850477e-02  1.66504048e-02  1.33691076e-02 -9.49007124e-02
 -4.19125259e-02 -8.15749839e-02 -8.34718533e-03 -3.15258428e-02
  1.43680321e-02 -3.30940001e-02  2.87616067e-02  1.69684254e-02
 -9.03831273e-02 -8.52822326e-03  9.11662541e-03 -4.53446284e-02
  1.86474286e-02  2.87579279e-02 -8.04073066e-02 -5.92879690e-02
 -7.90684968e-02 -2.05447525e-02  1.71266292e-04 -4.67868075e-02
  2.08789464e-02 -1.89916268e-02 -9.42042470e-02 -6.87034205e-02
 -4.90408577e-02 -5.24819419e-02 -5.83393313e-02 -4.17493172e-02
  1.18899876e-02  1.03534050e-02 -5.08194976e-02 -7.35296234e-02
 -8.89079124e-02 -8.93337205e-02  1.64245460e-02 -3.76774594e-02
 -2.33688019e-02 -8.12172219e-02 -9.54484791e-02 -7.23633990e-02
  1.47567624e-02 -1.44713800e-02  2.45146845e-02 -3.13131846e-02
  3.74956764e-02 -2.61439593e-03  8.36774532e-04 -7.52047673e-02
 -3.90065610e-02  1.27129657e-02 -6.15507700e-02  6.99038105e-03
 -2.92464811e-03  9.37144738e-03 -8.31960961e-02 -6.49554804e-02
 -4.91391942e-02 -3.18396464e-02 -2.18615122e-02  1.65308490e-02
 -6.22758828e-03 -8.52786750e-02 -2.24566683e-02 -9.03598890e-02
 -8.67611915e-02 -1.04245961e-01 -1.02780588e-01  1.82120819e-02
 -9.57317501e-02 -8.65271762e-02  1.37544814e-02 -4.73282747e-02
  8.81407131e-03 -7.55252838e-02 -5.05568497e-02  6.68611983e-03
 -5.63221499e-02  1.87714677e-02  9.16025601e-03 -8.13518316e-02
 -3.25984098e-02  3.61951962e-02  1.57648008e-02 -7.01075047e-03
 -7.24039376e-02 -1.14970775e-02 -7.28167817e-02 -1.19463494e-02
 -5.19232638e-03 -1.09189823e-02 -6.86609074e-02 -1.02592744e-02
  1.00431023e-02 -2.00184546e-02  2.10782867e-02 -6.10739030e-02
  3.47496085e-02 -5.10549173e-02 -1.02793440e-01 -2.04053279e-02
  5.59359044e-03 -7.21913800e-02 -8.24315771e-02 -1.03330009e-01
 -5.98295555e-02 -1.17408931e-02 -6.28848094e-04  1.27809178e-02
 -3.14202718e-03 -2.72092130e-03 -3.29328962e-02  2.31470093e-02
 -3.07278223e-02 -8.97328556e-02 -5.39491214e-02 -3.67368907e-02
 -2.03602351e-02 -2.21433938e-02 -6.23282343e-02 -2.38100737e-02
 -9.11206380e-02 -4.94251549e-02 -8.90718102e-02 -7.55244913e-03
 -4.46718857e-02 -1.03528373e-01 -8.10592622e-02  3.71412300e-02
  6.08358905e-03 -5.07269911e-02 -8.53700638e-02 -2.91105472e-02
 -6.42603412e-02 -1.27680572e-02 -4.70283031e-02  1.10975923e-02
  1.06397653e-02 -3.57511220e-04 -1.37444539e-03 -2.37798952e-02
 -9.42548439e-02 -1.07971422e-01 -6.00071065e-02 -1.67476304e-03
 -9.29004475e-02 -7.35269785e-02 -9.32931900e-02 -5.38354069e-02
  4.00532894e-02 -4.96362410e-02 -1.35888194e-03 -9.82509479e-02
 -8.50693882e-02 -1.28615424e-01 -4.02868800e-02 -6.49129674e-02
 -7.61116073e-02 -4.50213533e-03 -1.81409530e-02 -9.07848701e-02
 -6.77192863e-03 -8.49145278e-02 -4.00204472e-02 -9.67455003e-03
 -1.18894260e-02 -7.13087106e-03 -3.41097191e-02 -6.57992437e-02
 -7.43751787e-03 -8.75816122e-02 -3.69301215e-02  8.07907246e-03
  2.85622645e-02  3.89281032e-03 -8.17938671e-02 -1.01812808e-02
 -6.27074344e-03 -1.48083130e-02 -5.63158393e-02  1.66689884e-02
  4.21770252e-02  1.26372632e-02 -8.49251151e-02 -6.23585694e-02
  6.96726842e-03 -8.71726945e-02  3.56854759e-02 -7.43605345e-02
 -2.79282704e-02 -8.08258876e-02 -9.58575979e-02  6.39339443e-03
 -4.80867997e-02 -4.52917404e-02 -5.07084690e-02 -1.92929227e-02
 -1.11070022e-01 -9.83967166e-03  1.40283769e-02 -2.44304948e-02
  1.96221843e-02 -6.33369088e-02 -1.08073808e-01 -1.98390540e-02
 -1.05781861e-01 -4.29779515e-02 -1.95585098e-02 -1.78472465e-03
 -9.28812400e-02  1.70431957e-02 -6.33577853e-02 -6.99119568e-02
 -1.18559122e-01 -1.70574896e-02 -5.40200472e-02 -3.25524784e-03
 -1.79547016e-02 -7.78934583e-02 -4.36211564e-03 -1.84320267e-02
  2.41947062e-02 -7.31870010e-02 -4.04727347e-02 -6.34964136e-03
 -3.94921470e-03 -7.67023712e-02  1.20214829e-02 -6.20256364e-02
  1.56516694e-02  9.07973759e-03  3.31372730e-02 -8.16724598e-02
 -5.71168624e-02  2.47320794e-02 -5.96677288e-02 -8.00158605e-02
 -8.48896950e-02  2.24077236e-02 -4.45748083e-02  3.12148202e-02
 -3.12398113e-02 -1.65160559e-02 -2.23895740e-02 -6.01804927e-02
  2.47192513e-02 -1.04070909e-01  2.35220809e-02 -3.42657529e-02
 -2.72263549e-02  8.72341637e-03  3.50235440e-02 -4.83154878e-02
 -5.81084825e-02  1.23350481e-02 -1.80677138e-02 -7.40398988e-02
 -7.47928172e-02  1.35540888e-02  2.96028368e-02 -2.57036183e-02
  1.35514140e-02  7.51163438e-03  4.05329540e-02 -9.47316885e-02
 -5.17597329e-03 -7.95220677e-03 -6.96373582e-02 -2.01363303e-02
 -1.02741323e-01 -5.98709546e-02 -1.78187547e-04 -9.90772471e-02
 -9.39869806e-02 -1.18779931e-02 -2.09086630e-02 -7.22644255e-02
 -6.83330819e-02 -1.95967611e-02 -7.38937333e-02 -6.35998771e-02
 -1.46033056e-02  2.14905739e-02  1.90913957e-02 -7.81765506e-02
 -9.57648605e-02 -6.83142543e-02 -6.80757910e-02 -9.35924649e-02
 -3.10900137e-02 -6.14424460e-02 -8.39188099e-02 -3.95964794e-02
  8.27474520e-03  2.47847736e-02 -1.29311373e-02 -2.77795810e-02
 -6.94101863e-03  1.62127670e-02 -4.46741208e-02 -5.31676188e-02
  1.20153297e-02 -1.58133935e-02 -1.03464603e-01 -1.84570476e-02
 -5.18708155e-02 -3.35924327e-02 -3.72414328e-02  2.46768761e-02
 -3.45427990e-02 -1.77192949e-02 -5.75335138e-02 -3.07692401e-02
 -3.27436514e-02 -3.05598527e-02 -5.85220270e-02 -6.10398017e-02
  1.46032274e-02 -1.94592271e-02 -5.97277209e-02 -7.23512471e-02
 -5.72314449e-02 -2.35298239e-02  1.84531789e-02  1.96234649e-03
 -4.69135493e-02 -3.31751853e-02 -8.83040130e-02  3.00955325e-02
  3.13311117e-03 -8.24303702e-02  2.17051301e-02 -7.24489614e-02
 -9.86183435e-02  3.56097557e-02 -6.92297071e-02 -1.10740289e-01
  2.09696256e-02 -9.17709768e-02 -7.87794814e-02  4.22742078e-03
 -3.42978574e-02 -7.73114562e-02 -9.48222354e-02 -3.40308212e-02
 -6.61809146e-02 -5.71378507e-03  4.65081781e-02 -4.02917154e-02
 -9.05118212e-02 -7.68272579e-02 -3.88054140e-02  2.33733021e-02
 -1.85737794e-03 -8.74775350e-02 -2.23410707e-02  1.11202579e-02
 -1.94211155e-02 -2.53696460e-02  9.55745857e-03 -4.25933711e-02
 -5.37751541e-02  2.18992848e-02 -4.40560170e-02  2.88940966e-02
  9.39175766e-03 -4.52035256e-02 -7.19031766e-02 -2.43003736e-03
 -1.03413016e-01 -8.68101269e-02 -2.56278869e-02 -2.53808070e-02
  3.10125984e-02  2.69852486e-02 -1.65437739e-02 -8.46868567e-03]

Layer: encoder.2.1.block.1.2._packed_params._packed_params
Quantized Weights:
[[-18  13  63 ...   8  40  11]
 [-42 -55  12 ...  25  44 -37]
 [ 14  -9 -35 ...  24  22   2]
 ...
 [ 16  14  -7 ...  -3 -50  15]
 [ 15  35  29 ... -25 -34 -34]
 [ 22   4 -10 ...   9  21 -33]]
Quantization Scale: 0.001087119453586638
Quantized Bias:
[-4.1335605e-02  4.5800558e-03  2.2125823e-02  2.3822052e-02
 -2.6814956e-02  2.7286682e-02  1.5226513e-02 -1.6174790e-02
  7.2779908e-04  3.4956686e-02 -2.7929407e-02 -4.1312877e-02
  2.3467507e-02  1.5889421e-02 -6.5834805e-02  3.0434022e-02
  2.6639510e-02 -6.9037210e-03 -1.6054766e-02 -2.9718248e-02
  5.6193746e-03  9.1997506e-03  2.7723206e-02  2.6038598e-02
 -2.2928523e-02  2.8779553e-02 -2.3997561e-03 -1.4049408e-02
 -3.6893331e-03 -1.3856516e-02  7.7029578e-03 -2.7830724e-02
 -2.0406254e-02 -3.2954458e-02 -2.5833091e-03 -2.2123154e-02
 -2.5976500e-02  1.1304609e-02 -5.1825173e-02  1.0536455e-02
  2.0023992e-02  5.2821222e-03  4.5590326e-02  1.6092308e-02
  1.7242197e-02 -3.5606321e-02 -4.8610583e-02 -1.4110754e-02
  3.5987285e-03 -1.3671007e-02  2.7543619e-02 -1.8262886e-02
  2.0302359e-02 -6.7008832e-03 -2.6874606e-02 -2.4100587e-02
 -4.6094764e-02 -4.1304525e-02  1.4057855e-02 -1.3968702e-02
 -2.4201637e-02 -1.3084540e-02 -6.3108839e-03 -1.4449409e-02
  3.0288501e-02 -7.5053418e-04  2.9984642e-02  9.7298203e-03
 -2.1443112e-02  4.3011080e-03 -2.3308225e-02  1.3980441e-02
  8.3623286e-03 -2.0628620e-02  2.2714343e-02 -1.7243261e-03
 -1.6768182e-02 -1.7893191e-02 -1.8564336e-02  3.4308150e-02
  1.0617009e-02  8.7901121e-03 -2.5478147e-02 -3.1424094e-02
 -2.0903196e-02  1.1776321e-02 -6.1899964e-02  1.5048534e-03
  5.6943823e-02 -5.6713711e-02  2.5937418e-02 -5.6061847e-03
 -7.7448757e-03  2.0190207e-02 -1.8714193e-02  1.0769274e-02
 -6.6137254e-02  1.9843323e-02  2.4147900e-02 -8.8280058e-03
 -3.1423993e-02 -1.6539389e-02  3.6630489e-02  1.3717266e-02
 -9.5427800e-03  4.8573676e-04 -2.1356827e-02 -5.4897036e-02
 -2.0685725e-02 -2.2665696e-02 -1.9597910e-02 -7.1079764e-03
 -1.4984650e-02 -8.9427009e-03 -1.0009221e-02 -3.9445492e-03
  8.1099542e-03  2.4290571e-02 -1.1446078e-02  6.4249164e-03
 -3.8434602e-02 -3.8145117e-02  1.2885510e-02  2.4926089e-02
 -2.3287710e-02 -3.3481997e-03 -2.6558105e-02 -2.2742130e-02
 -3.3689480e-02 -4.9740508e-02 -5.8191258e-02 -6.3206349e-03
 -1.7045112e-02 -1.3661128e-02  2.8246237e-02 -3.2521132e-02
 -1.6636958e-02 -2.2820264e-02  1.5036460e-02 -3.8246315e-03
 -7.7782162e-05 -1.0404866e-02  8.3124768e-03 -2.1578034e-02
  1.4777213e-02 -4.3269031e-02  1.9868394e-02 -7.4834083e-03
  1.0886878e-02  9.2601273e-03 -1.2346026e-02 -4.3301876e-03
 -2.5231326e-02  2.4490755e-02 -2.0670127e-03  3.0971339e-02
  2.1515721e-02  1.9835178e-02 -3.1371851e-02 -7.6632737e-03
  4.3475591e-03  2.5468843e-02  3.2321960e-02  2.9500895e-03
 -1.8305749e-02 -1.7890923e-02  2.1939000e-02 -5.1756170e-02
  1.7925769e-02  1.5655981e-02 -2.7190678e-02 -9.5799491e-03
  2.2232410e-02 -3.4753416e-02 -4.2953771e-02 -3.7146829e-02
 -4.3020923e-02 -3.4650792e-03 -1.0415986e-02 -1.5005553e-02
 -2.0782968e-02  6.8023601e-03  2.6789352e-02 -2.5689641e-02
 -1.0626946e-02  3.7415247e-02  4.5537455e-03 -1.3005415e-02
  1.3236115e-02  1.9604065e-03  9.2772879e-03 -5.9154861e-02]

