Layer: encoder.0.0.block.0.weight
Parameters:
[0.97502124 1.00077    1.0394275  0.96896714 1.0381248  0.9550615
 1.0360527  0.98042965 1.0250835  0.9770481  0.9904327  1.0317317
 1.0246407  0.98744935 1.015983   0.99272656 1.0635691  0.987585
 0.9793704  1.0233053  1.0471709  1.0000205  1.0549535  1.0248803
 0.9639193  1.0036083  1.0061116  1.0273918  1.0092195  1.029836
 1.0007656  1.002557   1.0024635  1.0161614  0.989814   1.0280805
 0.9992594  1.0172099  1.0027727  0.97909546 1.0002182  0.94921213
 0.9808467  1.0046602  1.0121355  1.075621   1.0483798  1.0529876
 1.0308273  1.0548123  1.0227938  0.9817675  1.0365348  1.0564802
 1.0071533  0.9980569  1.0168831  1.0322803  0.97959083 1.0250239
 0.97123456 0.9877648  1.0699469  1.0638031  1.012023   0.99139816
 0.9969476  1.017956   0.95573044 0.9868782  0.98116446 1.0277904
 0.9913003  0.9830977  0.9789866  0.9776013  1.069839   0.9919275
 0.98214614 1.0128387  1.0208473  0.97130036 1.0205039  0.978221
 1.0167805  0.99902815 1.0669022  0.9684881  0.99028474 1.0563926
 1.0027784  0.9731871  0.99000156 1.0016254  0.9764072  1.053819
 0.969992   1.032073   0.98530614 1.0274532  0.9730368  1.0575736
 1.0064752  0.98651725 0.9717501  1.0317736  0.96984804 1.0009401
 0.9996979  0.99982125 1.0457245  1.0855674  1.0418861  1.0456276
 1.0425884  1.0051719  0.9880255  1.024528   0.987679   1.0324215
 1.0371609  1.003899   1.0107067  1.0120931  1.0385526  1.0081223
 1.0086006  1.0957481  1.0535876  1.0188826  1.008767   1.0195715
 0.9778161  1.0053238  0.96927255 1.0645665  0.9503207  1.0302031
 0.9749274  1.026292   1.0327482  1.0323536  1.016297   1.0140219
 1.0166639  1.0795723  1.0235263  1.0249122  0.98323673 0.9742351
 1.0106322  0.95651513 0.9845083  1.0190678  1.026564   1.0430607
 1.0237635  0.9799628  0.9822328  1.0213361  1.0231388  0.9399427
 1.0111469  0.99368405 1.0117795  1.0086361  0.9800855  1.1128662
 1.002493   1.0467262  1.0208147  1.0142883  0.9411968  0.9967581
 1.0068865  1.037991   0.94377726 1.0153042  0.9957219  0.96488905
 0.9793407  1.0316054  1.0387447  1.0581297  0.99273634 1.0165825
 0.9881965  1.0216303  1.0175092  0.96989334 1.0434636  1.0295552 ]

Layer: encoder.0.0.block.0.bias
Parameters:
[-0.00989798  0.01752432  0.01033295  0.05435968  0.01661215  0.05507543
 -0.00558596 -0.04753345  0.01653331 -0.0376278   0.02864481 -0.03410306
  0.00887438 -0.00233313 -0.03661448  0.01682456  0.01779736  0.01126438
 -0.04546635 -0.03709104  0.03778108 -0.04894514  0.00801113  0.02260451
 -0.04255136  0.00281201  0.01427482 -0.02176578 -0.01206946  0.03108045
  0.04491125 -0.02213968 -0.04911846 -0.00843941  0.05805268 -0.03530353
  0.02139889  0.02340799  0.03384823  0.01838704 -0.00976605  0.04522624
  0.01859691 -0.02385434 -0.00291544 -0.02766753 -0.02647323 -0.00526647
 -0.00555807 -0.02034636  0.00134688  0.00836126 -0.02113709 -0.00169473
  0.00886612 -0.02359149 -0.0525988   0.01142356  0.00897814  0.01260823
  0.04808032 -0.00870184 -0.01577375  0.00184789  0.00723822  0.02176548
  0.03488247 -0.06501158  0.01307028  0.02087777  0.01519381  0.02198136
  0.02304948  0.01748809 -0.01703606  0.01282004  0.00377595 -0.06012541
  0.01504143  0.01485778 -0.00810125  0.02824458 -0.01898596 -0.07432095
  0.02259149  0.0216001  -0.0113551   0.01030062  0.02386524 -0.00713164
  0.00692792  0.02702613 -0.01707906 -0.01142902  0.0191827   0.0133742
 -0.07583033 -0.01134198  0.0405235   0.00593376  0.00746769  0.01235903
  0.01165218  0.01068921 -0.00018706  0.00827259 -0.02835368 -0.06098082
 -0.05230089  0.01015414 -0.02962917 -0.02672094 -0.00231694  0.02116803
 -0.00204961  0.01718238 -0.03063974  0.00975445  0.0204508   0.02197426
  0.0178957   0.01239013  0.00539326 -0.00287936  0.0211128   0.01338123
 -0.03283527  0.01320994 -0.0132417   0.02049866 -0.06485657 -0.01595837
  0.02187853  0.02684337  0.02119388  0.00886199  0.05979727  0.04097583
  0.0189082  -0.02080054 -0.01148361  0.00566744  0.01062853 -0.02845468
 -0.00014646 -0.01205427  0.0219904   0.01503555  0.02277347 -0.06393752
  0.00420473  0.02017378 -0.00695464  0.03553049  0.01241726  0.00817523
 -0.04097581  0.02079179  0.01753568  0.00743582 -0.0190433   0.02727126
  0.02431602  0.03544022  0.02381839  0.03228601  0.05100308 -0.01062416
  0.01078064 -0.05159678 -0.00689851 -0.00046659  0.04171203  0.01863585
 -0.02553951  0.00170042 -0.05252637 -0.00080794  0.02094163 -0.02072164
 -0.00561614  0.01895184  0.00513962  0.00817042  0.01860783  0.03089454
  0.01273755  0.00684283 -0.02496352 -0.03402233 -0.05169702 -0.00375649]

Layer: encoder.0.0.block.1.queries_projection._packed_params._packed_params
Quantized Weights:
[[-70  25  45 ...   9 -11  41]
 [ -1  -2 -10 ...  -6 -11 -24]
 [-69  75  15 ...  -9   9 -46]
 ...
 [ 42 -16  -7 ... -34 -45  27]
 [  3 -18  19 ...  11 -29  11]
 [ 33 -54 -41 ...  43 -23  35]]
Quantization Scale: 0.0016688834875822067
Quantized Bias:
[ 0.06134006  0.05202604 -0.03778487 -0.00852696 -0.04655216  0.09476199
 -0.01202581  0.02501333  0.00824877  0.00398409 -0.05725901 -0.02867818
  0.04962902 -0.0563751  -0.03398313  0.02636591 -0.04214004  0.02425917
 -0.03342133 -0.04976596  0.07020013  0.06184619  0.00831161  0.01872784
  0.04020224 -0.05760437 -0.00331612 -0.01521585 -0.02899045  0.07367223
 -0.00373852 -0.05436532 -0.07119824 -0.00342908  0.04767367  0.0072046
 -0.0268723   0.08635192 -0.059508   -0.04140051 -0.01219196  0.04398649
 -0.00661933  0.09846511 -0.06277379  0.05841304 -0.00993187  0.00212757
 -0.00176864 -0.01117148  0.01954278 -0.03350052 -0.06176341  0.0046997
 -0.0649123   0.00070314 -0.04784982 -0.00160643 -0.02818445 -0.05547581
  0.02812169 -0.03888802 -0.07212877  0.02438743  0.00807508 -0.03862466
  0.02303939  0.02343759  0.05854193 -0.01020232 -0.07036472  0.02743189
  0.04304015  0.06840157 -0.01941688 -0.0304034  -0.00137582 -0.00900388
 -0.01233665  0.00291946 -0.05158512 -0.02442968 -0.05387415 -0.03928642
  0.04577171  0.02957063  0.08381347  0.03623725 -0.0227721   0.07215102
  0.01925179 -0.0115608   0.0273394   0.06647399 -0.04293759  0.01916825
  0.04337128 -0.04333074 -0.06528896 -0.01609893 -0.02871842  0.07259724
 -0.02966251  0.03296401  0.07282845 -0.03629882 -0.04961355 -0.04133865
  0.03049797 -0.00543388 -0.01880797 -0.00051831  0.07393742 -0.04405031
 -0.03261995  0.00458383  0.03699398 -0.0763021   0.02480612  0.06995831
  0.00876886 -0.00659454 -0.04503281 -0.06733263 -0.05475987 -0.07913084
 -0.04287952  0.04827432 -0.07141711  0.04529127  0.03156482 -0.04063607
  0.0506044  -0.03009742 -0.01292468  0.02221986 -0.01890882 -0.06406441
  0.04170186  0.02139968 -0.01395813  0.09046028  0.06999844 -0.06286401
  0.02948192  0.05491566 -0.01102406  0.0551344   0.01187254  0.03332254
  0.06817374  0.04613569  0.03609907 -0.05669223 -0.09149918  0.10000239
 -0.05498323  0.02187265  0.05888537  0.02671108  0.06151502 -0.03718671
  0.02367043 -0.06470986 -0.01685396  0.08590618 -0.05091292 -0.04596566
  0.05085964  0.00573283  0.01736598 -0.04413607 -0.02628079 -0.00931518
 -0.03043624 -0.02786605  0.00992709 -0.01497354 -0.01484699  0.06916173
  0.01569596 -0.0040952  -0.01142544  0.05837364  0.01851606  0.03273023
  0.06663238  0.01794928  0.03488636  0.04557784 -0.03868137 -0.00595846]

Layer: encoder.0.0.block.1.values_projection._packed_params._packed_params
Quantized Weights:
[[  6  17  -9 ... -28  -7  26]
 [ 24  42  32 ... -30  -4  -8]
 [ -4  14  31 ...  23   8 -23]
 ...
 [ 41 -25  23 ... -33  33  20]
 [ -8  16 -34 ...  46 -43 -38]
 [ 14  21  14 ...  24  25  -3]]
Quantization Scale: 0.0021209814585745335
Quantized Bias:
[-0.02568337  0.00264261 -0.04348764  0.02227321 -0.04875374 -0.03337941
  0.03453654  0.04211262  0.00403615 -0.06744408 -0.00145836  0.05787522
 -0.03438478  0.00388993  0.06158232 -0.06590082 -0.04441376 -0.00409047
  0.06491195  0.00307782 -0.03087685 -0.07280871 -0.03926548 -0.04716941
 -0.03269191  0.03898179  0.0275919  -0.06394117  0.05098131  0.02431424
 -0.01194897 -0.03428807  0.07154471 -0.04278976 -0.01258196 -0.00893128
 -0.08265347  0.0467355  -0.01031189 -0.04006974  0.04496661  0.02551023
 -0.04852056 -0.02951078  0.00035009 -0.00455075  0.0483693   0.05402753
 -0.0215619   0.04500296 -0.05112546  0.02798916  0.06875559  0.04488583
  0.04969756 -0.0460634   0.02049901  0.02741925 -0.0279294  -0.01409438
  0.04144254  0.02264389  0.00835906 -0.06777736  0.03013473  0.01761306
  0.03563916  0.01400685  0.00354664  0.07284393  0.05724536 -0.06566767
  0.02069283 -0.03531671  0.09162123  0.00033701 -0.02388999  0.01054193
  0.00631157  0.04605427 -0.02686998  0.06870334  0.01873989 -0.02877565
 -0.05458651 -0.03072817  0.07732408 -0.01775517  0.05096732 -0.01753824
 -0.01225334 -0.04160357  0.00413165  0.00015744  0.04344176 -0.0141575
 -0.00322254  0.00289082  0.01931706 -0.06120008 -0.03910813  0.04126752
 -0.02117102  0.02852998 -0.01979245 -0.05909763 -0.00365766  0.00742397
 -0.0528974  -0.00552982 -0.0693345   0.00152581  0.02993589  0.04067579
  0.003868    0.03687504 -0.03970258  0.04724116 -0.02412711  0.04691154
 -0.0364497  -0.07737485  0.05865195 -0.04076467  0.05356885  0.02902918
  0.00852491 -0.03691206  0.00297654  0.07759249  0.07234738  0.02860761
 -0.04949899 -0.04026817 -0.0275852  -0.01050495 -0.02238516 -0.00039363
  0.04051246  0.01918481  0.0148809  -0.07443159 -0.02620882  0.02190334
  0.04884063 -0.06393615 -0.01819246  0.00737288 -0.04865367 -0.0109787
 -0.03235446 -0.04972991 -0.04196148  0.02410451 -0.03720895 -0.04903358
  0.03425077  0.02636048 -0.04951109  0.00943215 -0.02172448 -0.03002216
 -0.00064265  0.05450921 -0.05224752  0.0087373  -0.01689969  0.03136191
  0.0527362  -0.01781805 -0.03331069  0.01456261 -0.01104872 -0.04995884
  0.04782194 -0.00786738  0.01101306  0.03324653  0.05678184  0.0177782
  0.04984567  0.05601576  0.0132512  -0.0611922  -0.01614129 -0.04217882
 -0.00199632 -0.03878106 -0.01904646  0.024073   -0.068595    0.00499088]

Layer: encoder.0.0.block.1.keys_projection._packed_params._packed_params
Quantized Weights:
[[  4 -34 -23 ... -53  -9   1]
 [ -7  22   2 ...  13  70 -34]
 [ 29  13  21 ... -10 -23  49]
 ...
 [  6  41 -24 ... -39 -60 -35]
 [ 11 -30 -24 ... -22 -40 -39]
 [ 20 -11  -8 ...  52 -11  16]]
Quantization Scale: 0.0017040540697053075
Quantized Bias:
[-0.08285046  0.03070796 -0.03549658 -0.09444268 -0.05184519  0.07968666
  0.00017906 -0.0050302  -0.02571227 -0.07557176  0.0024522  -0.01792999
  0.0705689   0.05015965 -0.03784613 -0.03034382 -0.02690047 -0.01556279
  0.04832588  0.05074998 -0.00736395 -0.0316795   0.05885351  0.00209212
 -0.03462787 -0.05122735 -0.02061875 -0.04731977  0.01504553 -0.06616867
 -0.05783428  0.06122637  0.00102031 -0.03659651 -0.05191579 -0.01197626
  0.02813509  0.10589142  0.08473276 -0.08288155 -0.02368282  0.01593166
 -0.00731873  0.06936022 -0.03098243  0.07463988  0.0256461   0.08652936
 -0.03229977 -0.0304511   0.01516275 -0.03100387  0.01059187  0.04773536
 -0.04022241 -0.04525345  0.05966575  0.07403544 -0.03448918 -0.06254344
 -0.06535146 -0.02750885  0.00908414 -0.07570063  0.01223552 -0.00485279
 -0.06384932  0.0101316   0.03771789 -0.02971565  0.05058598 -0.02743619
  0.02678057  0.02616456 -0.01793937  0.09627097 -0.05316931 -0.00539235
  0.01345161  0.03260095 -0.02679479  0.06114568 -0.00500152 -0.05645476
 -0.07527345  0.0026457   0.00479375  0.0177278   0.03743014 -0.02939597
 -0.04915269 -0.02937147 -0.03119773  0.02960405  0.04019306 -0.06133967
 -0.09193479  0.00849304 -0.04625386  0.08675995  0.00385917 -0.04603666
  0.06450091 -0.03300446  0.04911125  0.04054938  0.06744629 -0.05812481
  0.06853628 -0.07013145  0.01145433  0.03560281 -0.04345281 -0.02740328
  0.01995586 -0.00268643  0.01056707 -0.01679975 -0.00169435 -0.08288998
 -0.0075732   0.04154371  0.01618312  0.02985042  0.02105187  0.02349668
 -0.06047362 -0.06008656 -0.03960045  0.05114702  0.00855833 -0.00523259
  0.03977832  0.0373594  -0.03144333  0.09111472 -0.03084099  0.01554383
 -0.04834608 -0.08401516 -0.00763913  0.01046101  0.06091272 -0.00668505
 -0.04153316 -0.03610916 -0.01366454  0.04060027  0.04592752 -0.01457324
  0.07560205  0.02207367  0.03488241  0.02468387 -0.04254951 -0.00721373
 -0.06656772  0.03199376 -0.00370267  0.03462201  0.01609527  0.05063113
 -0.08770604  0.04832758  0.08241942 -0.03123161 -0.06189718 -0.0392982
 -0.02747908 -0.04174904 -0.02088218 -0.02458369 -0.04072454 -0.02682041
  0.05813465  0.03169151  0.02047856  0.01106827  0.01916596 -0.06351934
  0.02643807  0.05046781 -0.08589794 -0.02656204  0.07387007  0.03242296
  0.05875699  0.07777204 -0.01866114  0.05575243  0.02812422  0.03317192]

Layer: encoder.0.0.block.1.final_projection._packed_params._packed_params
Quantized Weights:
[[-36  10   5 ...  55 -44  12]
 [  4 -37 -55 ... -29  29  -9]
 [  9 -18  -9 ...  38 -24  -5]
 ...
 [ 27  15  13 ... -22  31  37]
 [  8 -22  -1 ... -25  16  27]
 [ 24  -8   8 ...  11  -4   7]]
Quantization Scale: 0.0024929861538112164
Quantized Bias:
[ 4.30300422e-02  4.24845181e-02  5.02950400e-02  2.63448656e-02
  2.95724738e-02  5.83976284e-02  4.79362383e-02 -5.62158078e-02
 -6.61078701e-03 -2.52650846e-02 -9.76415165e-03  3.76273543e-02
  2.55659819e-02  1.42300846e-02  7.89346267e-03 -3.24742161e-02
  1.40330214e-02 -6.89543709e-02 -6.90967962e-02  3.47552188e-02
  7.87114874e-02  1.80101616e-03 -7.33978748e-02  2.84140725e-02
  5.57293044e-03 -1.48180323e-02 -3.52753438e-02 -5.23058232e-03
  1.24739110e-02 -3.09240166e-02 -1.08608501e-02 -5.74601665e-02
 -4.70052771e-02  5.38318194e-02  4.41952012e-02  5.99311963e-02
  6.00911081e-02 -1.29769836e-02  7.74738342e-02  4.21225652e-02
 -1.30940434e-02  3.36075351e-02 -5.77101856e-03 -5.02965488e-02
  8.24708771e-03  1.18019124e-02  9.83050093e-03 -1.94826704e-02
 -1.06474862e-03  2.94706058e-02 -2.66321693e-02  4.14287746e-02
 -9.11810063e-03  5.34757003e-02  1.60408542e-02  2.33687758e-02
 -1.54989650e-02 -1.00695826e-02 -4.14136834e-02 -6.19554222e-02
  4.85475287e-02  3.20122689e-02 -1.67661402e-02 -2.07799836e-03
  5.58836088e-02  1.79221500e-02  3.45336869e-02  2.29060557e-02
  5.62889315e-02 -6.86865672e-03  1.00427112e-02  4.25593369e-02
 -5.13958521e-02  2.79899463e-02  4.63090427e-02 -1.36383409e-02
  2.19311775e-03 -1.89421885e-02  1.91047378e-02 -1.44871678e-02
  1.13699501e-02 -1.26795787e-02 -2.19370145e-02 -5.19966967e-02
  2.32699197e-02 -2.43555792e-02  1.15717221e-02  9.97814722e-03
  3.77168283e-02  3.22467908e-02  2.09459588e-02 -4.31104191e-02
 -1.06604593e-02  4.70368862e-02  2.79003400e-02 -4.51584011e-02
 -7.62675926e-02 -6.57887533e-02 -2.56296303e-02 -5.49694225e-02
 -5.73940612e-02 -2.74972692e-02  6.10778518e-02 -5.61799072e-02
  3.44438627e-02  1.10638142e-02  3.56642306e-02 -1.42702991e-02
  6.16479665e-02 -2.19613053e-02 -4.53322940e-02  3.60378250e-02
 -2.74666324e-02  2.34567430e-02  3.66747417e-02 -4.57615331e-02
 -4.93440032e-02 -1.15690557e-02  4.31334823e-02 -1.77459698e-02
 -2.08648518e-02  4.47891615e-02  1.71021111e-02  2.58950349e-02
  2.13403534e-02 -4.63498756e-02  4.34079468e-02 -6.20438531e-02
 -2.57554054e-02 -1.61832962e-02 -3.65057099e-03 -6.70156674e-03
  4.69702259e-02 -4.70075719e-02 -5.21511622e-02  7.60654584e-05
  2.36631315e-02 -1.93447247e-02 -3.32761854e-02 -9.59801953e-03
  1.82481445e-02 -1.19008182e-03 -2.93434784e-02  3.87310721e-02
  2.10796692e-03  2.66218483e-02  2.40192842e-02  2.98837256e-02
  3.98101285e-02 -2.41615083e-02 -1.92821007e-02  1.33954640e-02
 -2.91832238e-02 -3.82008478e-02  1.68772507e-02 -1.98928900e-02
  3.47725372e-03  2.21261922e-02  4.11540754e-02 -3.35321091e-02
 -4.95116003e-02 -3.57109448e-03 -4.87158224e-02 -4.62036692e-02
 -3.81385013e-02  5.69198467e-02  4.25061136e-02  2.90250801e-03
  1.47652244e-02  2.27952041e-02  5.82846105e-02 -4.11021672e-02
  6.34773895e-02  4.53206860e-02 -1.07027115e-02 -1.88989192e-02
  8.94259755e-03 -1.19940517e-02  4.43110839e-02  1.46377767e-02
  4.55235057e-02 -2.73470767e-02  1.81698184e-02  3.78827122e-03
 -3.28518227e-02  2.49333009e-02  1.45621905e-02  5.17826900e-02
 -5.33221802e-03 -1.38753336e-02  7.47933285e-03  1.68910529e-02]

Layer: encoder.0.1.block.0.weight
Parameters:
[1.0417933  1.0059774  0.9843014  1.0243571  0.97664434 0.9731114
 0.99       1.0045366  0.9934497  0.92458826 0.9790358  1.0001173
 1.016407   1.0122492  1.0298537  1.0021658  0.981887   0.982812
 0.98755777 1.0060997  1.011609   0.9757997  1.0600146  1.0010976
 1.0177426  0.97726655 0.9596943  1.0401512  1.0083565  1.0014465
 0.9844289  1.0188955  0.9999136  1.0243639  0.96384096 1.0114007
 0.999192   0.9415239  1.0154078  1.0409495  0.992361   0.99054486
 0.9760146  1.0081894  1.0072923  1.0095716  1.0061673  1.0026255
 1.0363632  1.0243155  1.0242406  0.96656454 1.0254014  1.006268
 1.0002081  0.9557302  0.9972163  1.0193479  0.9927987  1.006678
 1.029054   1.0142357  1.0217478  1.0477346  1.0090166  0.98061186
 0.98892725 1.0190419  0.9976231  0.959778   0.9703665  1.0152775
 0.98707944 0.95137423 0.99772227 1.0173274  1.0369809  0.97971976
 1.0119991  0.9704049  1.0046173  0.963535   1.0448078  1.0170066
 0.986349   0.98565394 1.0389607  0.9804664  1.0159981  1.0094962
 0.9687328  0.9715056  0.9976203  1.0054969  0.9778864  1.0117913
 0.95587724 0.9797156  0.97936386 1.007487   0.96878445 0.99671376
 1.0081991  0.9839629  0.9996117  1.0197412  0.9926363  0.99550474
 1.0229312  0.97602737 1.0045282  1.0287555  0.97054243 0.9851665
 0.9654926  0.9944118  0.96201783 1.0056787  0.96491385 1.0342147
 1.061976   0.9784322  1.007537   0.98326254 1.0067557  0.9685855
 1.0129486  1.0176489  1.0270219  1.0250143  1.0130992  1.0112741
 0.9809982  1.0118043  0.9919946  1.0119233  1.0422032  0.99857014
 1.0011457  0.99440545 1.0000056  0.97052574 0.917115   1.0276718
 1.0098748  1.0078328  1.0219076  1.0378873  0.9345673  0.97245705
 0.9968326  0.99530804 0.9346245  0.95123506 1.0464339  0.98938185
 1.0040114  0.99280787 1.0143638  1.0170462  1.0321121  0.9679229
 1.0077424  1.0280612  1.0247698  1.0251164  0.9380104  1.0445194
 0.9918003  1.0436834  1.0213826  0.9882267  1.0294861  0.9880323
 1.0507922  1.010114   0.9887549  0.9766848  0.987389   0.9685466
 1.025034   1.0142963  0.99622315 1.0164913  0.9456476  0.97490895
 1.0487933  1.0021521  1.009769   0.96233565 1.035896   0.9557917 ]

Layer: encoder.0.1.block.0.bias
Parameters:
[ 0.02052786 -0.00771284 -0.00753563 -0.00986392  0.00613155  0.04836641
  0.02460179 -0.00959479 -0.02517522 -0.05788566  0.00096568 -0.00867922
 -0.03409216 -0.00344386  0.02259284 -0.02064409  0.03315438 -0.01059547
 -0.02560919 -0.01817161  0.03770919 -0.00698722 -0.03358914  0.00219587
 -0.00365749 -0.01413196  0.02373944 -0.01137714 -0.01503532 -0.0225954
  0.02046198 -0.01013193 -0.01088954  0.01862025 -0.01104763  0.00390573
  0.00592561  0.0316158   0.05249426 -0.00804245  0.01721752  0.02587946
 -0.03924647 -0.02329415 -0.03011228 -0.00190696  0.01425559  0.01089346
 -0.00224807 -0.01135979  0.03698282  0.01975429  0.00433239  0.00611745
  0.02459671 -0.01525679 -0.02076936  0.02259629  0.00586626  0.00133877
  0.04398984 -0.03005552  0.01806615 -0.00152643 -0.01966945 -0.00870101
  0.02597467  0.00631486  0.00226159  0.06032068  0.00930807  0.01243734
  0.01008475  0.02851463 -0.00212047 -0.01504625 -0.00052357 -0.00555841
 -0.02027865 -0.02553998 -0.03931126  0.0072416   0.01961613  0.01700709
  0.0136261  -0.0123824   0.0059024   0.04118782 -0.01558887  0.01545656
  0.01028495 -0.00264565  0.00145461 -0.00044302 -0.04621701  0.01896975
 -0.02875181 -0.00551009 -0.01301127 -0.01944716  0.01067824  0.01168123
 -0.00221374 -0.01161455  0.01995037 -0.02041605 -0.02208778 -0.01076607
 -0.01458909  0.00365861  0.00342451 -0.00849118 -0.0329182   0.01591734
 -0.01940091 -0.00183682 -0.05023444 -0.00678215  0.00031822  0.00736354
  0.00345959  0.01295545 -0.01029736 -0.02405488  0.01995567  0.00856598
  0.01520219  0.0022705   0.01227331 -0.02783434  0.01726341  0.01668319
  0.06184538  0.02324493  0.02736694  0.00826894  0.03388128 -0.00196872
  0.04194221 -0.05687119  0.02282413  0.03032039  0.0322821  -0.01744783
  0.00158825  0.01236502  0.00392795  0.01179738  0.02540343 -0.02566916
  0.01319736  0.0181924   0.01279721  0.03826509  0.00931375 -0.00898384
  0.011041   -0.0200421  -0.03688683 -0.0105462   0.01483234  0.00827006
 -0.02989628 -0.00940533  0.00432146 -0.01448834  0.0159686   0.0200538
 -0.00854718 -0.00109858  0.01210711  0.00722176 -0.00821111  0.03574373
  0.01182644  0.02896363  0.00752493 -0.04622598  0.0006701  -0.03100488
 -0.0228642   0.02222453  0.00806628 -0.00736496  0.00652155  0.03862988
 -0.01682372 -0.01664043 -0.0256147  -0.0555606   0.01145305 -0.00768121]

Layer: encoder.0.1.block.1.0._packed_params._packed_params
Quantized Weights:
[[ -6  31  25 ... -20  23   0]
 [-15 -21  25 ...  32  -5   2]
 [-50  45  10 ... -40   4  17]
 ...
 [-56 -20  37 ...  36  29  -7]
 [-37 -21 -14 ... -34 -10 -30]
 [-11 -25 -28 ...  10 -21  16]]
Quantization Scale: 0.0018401178531348705
Quantized Bias:
[ 2.85762213e-02  3.56457271e-02 -2.16811225e-02 -7.61145260e-03
 -1.10406466e-01 -4.61427048e-02 -8.55116248e-02  2.89409030e-02
 -4.83554751e-02 -9.87518504e-02 -4.03165035e-02 -3.16454470e-02
 -1.87984537e-02 -2.01995578e-03 -4.51214686e-02 -1.85166821e-02
 -7.58818313e-02 -6.91568553e-02  1.05840070e-02  3.04560959e-02
 -1.01592049e-01 -8.33588764e-02  3.30734216e-02  2.76038405e-02
 -2.14502364e-02 -8.51367321e-03 -2.89659761e-02  2.92907073e-03
  3.74504663e-02 -7.38332197e-02  2.83694337e-03 -6.33416250e-02
  1.97007265e-02 -3.01322178e-03  4.40875739e-02  9.41080227e-03
  1.76146980e-02 -2.03006621e-02 -7.96387251e-03 -8.23678970e-02
 -8.42621848e-02 -3.89433317e-02  6.86317170e-03 -4.67807315e-02
 -8.08214024e-02 -7.81996027e-02  2.64085885e-02 -8.28513578e-02
 -4.63375263e-02  4.74506095e-02 -1.61513686e-02  9.67008900e-03
  6.98045408e-03 -5.15727140e-02  2.51175668e-02 -4.52628694e-02
 -7.18236044e-02 -1.45159680e-02  4.34008474e-03 -2.07079202e-02
  3.45147471e-03 -3.68663445e-02 -2.90790424e-02 -2.27378532e-02
  2.09347568e-02 -5.13601936e-02  2.14836337e-02  4.29138206e-02
 -6.00155927e-02 -3.89290275e-03 -1.14302477e-02 -7.09790364e-02
 -8.52722526e-02 -4.41941991e-02 -2.29500476e-02  3.62074673e-02
 -8.47713798e-02 -8.15676451e-02 -6.64559901e-02  3.07134148e-02
  2.35666335e-02 -6.21379763e-02 -5.26056699e-02  3.71400155e-02
 -3.31697688e-02  1.59597327e-03 -6.96247956e-03  4.97959703e-02
  5.24447858e-03 -2.21905410e-02 -8.55213702e-02  2.18352433e-02
  3.45648006e-02 -8.97385180e-02 -2.61183754e-02 -5.79000041e-02
  2.07511485e-02 -6.67090192e-02  3.41258422e-02 -9.70600843e-02
 -4.03264724e-02  1.70150492e-02  4.49674912e-02 -6.67802989e-02
 -2.47305930e-02  3.28271184e-03 -3.47119011e-02 -1.12847745e-01
 -8.21788236e-03  1.04602864e-02 -1.15783652e-02  3.02828047e-02
  4.49855626e-02  3.02349683e-02  1.46601368e-02 -6.19529821e-02
 -6.43467531e-03 -2.48103589e-02 -4.22068648e-02 -3.69928740e-02
  1.03025213e-02  2.98301503e-03 -3.94218527e-02 -4.39983085e-02
  3.17017250e-02 -1.11245483e-01  1.79837309e-02 -5.26102968e-02
 -3.86455134e-02  3.33315879e-02 -6.81257434e-03 -1.77807994e-02
  3.05480547e-02 -5.75751662e-02 -2.21466692e-03 -7.34124612e-03
  3.79091315e-02 -3.25218290e-02  4.80388887e-02 -8.43260065e-03
 -1.02724977e-01  2.25052540e-03  7.79281370e-04  2.56819297e-02
 -5.68874069e-02 -3.69266607e-04  4.48161960e-02  3.11412085e-02
 -2.70101186e-02  3.04590967e-02  3.26921307e-02 -6.67653754e-02
 -4.40696627e-02  3.83358598e-02 -6.78549111e-02 -8.43167529e-02
  7.56013952e-03 -1.35126561e-02 -5.97606674e-02 -2.34645270e-02
  2.83164326e-02 -7.42269531e-02 -1.25819976e-02 -7.31338114e-02
  1.18493037e-02 -4.40890491e-02 -9.89480540e-02 -9.57275480e-02
 -6.13664975e-03 -5.80051541e-02 -3.45235690e-02 -6.17728196e-02
 -4.68991436e-02 -4.01871689e-02 -2.76252180e-02 -7.45587349e-02
 -8.87507647e-02 -2.44577676e-02  1.32587487e-02 -3.46434452e-02
 -1.30370945e-01  3.59146186e-04  7.27866450e-03 -5.69866635e-02
 -8.24609324e-02  4.34837304e-03 -3.47388647e-02  4.33097482e-02
  9.02102422e-03 -3.13354023e-02 -1.10653332e-02 -1.68344863e-02
 -4.44756709e-02  4.56885733e-02  2.44344007e-02 -6.13783076e-02
  1.43532585e-02 -8.38820562e-02  4.35367487e-02 -5.92728071e-02
  2.94680279e-02  1.45926811e-02  3.71016972e-02  1.08576929e-02
 -4.70351093e-02 -3.64458561e-02  4.27221730e-02 -7.05011375e-03
  3.76354181e-03 -1.16242953e-02 -5.99939525e-02  4.21521366e-02
 -3.70970294e-02 -8.86093229e-02 -2.24462505e-02 -9.36843380e-02
  4.96919267e-03 -8.90040472e-02 -1.86800305e-02 -6.04212545e-02
 -8.75509754e-02 -4.78390008e-02  2.72443127e-02 -1.33850435e-02
  2.99614705e-02  4.98312265e-02 -1.11376657e-03  6.17233280e-04
 -4.61088382e-02 -9.07910615e-02  3.07300836e-02 -4.94042151e-02
  3.96281034e-02 -3.27373333e-02  3.06355134e-02 -7.30790496e-02
 -6.22979105e-02 -9.19863116e-03  2.74797622e-02 -1.98902804e-02
 -6.18594699e-04  2.53535211e-02 -4.74993847e-02 -2.35197563e-02
 -9.35294330e-02 -8.67083147e-02  1.81625150e-02 -4.38264459e-02
 -2.40655392e-02 -9.66371745e-02  1.26372203e-02 -2.25756280e-02
  5.89375710e-03 -4.84548248e-02  3.04512158e-02 -8.14067125e-02
 -6.01176396e-02 -3.55747081e-02 -9.83840898e-02 -2.39506327e-02
 -7.71082491e-02 -6.42498508e-02 -7.52127310e-03  1.17479954e-02
  1.89857911e-02 -3.47779021e-02  1.83308311e-02 -3.07272132e-02
 -4.55260538e-02 -6.51606247e-02  1.78551581e-02  3.48038189e-02
 -8.49432871e-02  2.32431609e-02  5.41028529e-02  3.62049602e-02
  1.14057735e-02  2.21617576e-02 -7.28814229e-02 -7.41517544e-02
 -3.19246612e-02 -9.07464400e-02 -3.85654010e-02 -5.74256182e-02
 -7.61884674e-02  2.80856732e-02 -9.74119455e-02  3.72720719e-03
  4.89544049e-02 -7.24339113e-02 -1.11161601e-02 -9.96217318e-03
 -1.18046086e-02 -9.26131941e-03 -4.72397879e-02 -2.77957674e-02
 -5.91920651e-02 -2.44508237e-02 -2.09007766e-02 -1.27779059e-02
 -3.90833803e-03 -4.98741865e-02 -7.11374655e-02 -5.63513078e-02
 -3.11654937e-02 -4.21855301e-02 -4.60675079e-03 -1.18173109e-02
 -4.92812060e-02 -6.97912201e-02 -9.65912768e-04 -8.81490409e-02
 -3.38145010e-02 -2.80208830e-02  1.22733810e-03  1.96800865e-02
 -5.02486378e-02 -1.09201688e-02  4.27088514e-03 -7.53730908e-02
 -4.67466637e-02 -2.92162094e-02  1.01189101e-02 -5.12274094e-02
 -4.22353558e-02 -3.75978053e-02 -8.01811740e-02 -2.51833461e-02
 -3.85553576e-02 -6.60212114e-02  5.14697209e-02  1.81546044e-02
  2.94817910e-02  1.18459594e-02 -3.17260064e-02  1.74321998e-02
  4.06228646e-04 -8.23167711e-02 -7.99228325e-02  1.87478643e-02
  9.38024931e-03 -4.56795059e-02 -8.18676576e-02  2.12312909e-03
  3.66272628e-02  3.48444693e-02  9.76666622e-03 -1.02995727e-02
 -5.02171703e-02 -4.40996177e-02 -4.75098640e-02 -1.17869861e-02
  7.29286112e-03 -2.11345199e-02 -7.17744455e-02 -9.24645811e-02
  5.60263097e-02  1.28573272e-02  2.70998757e-02 -1.08369878e-02
 -2.94732247e-02 -2.40095854e-02 -7.75908232e-02 -1.51000288e-03
  3.35351266e-02 -1.01182293e-02  5.54498378e-03  4.44394723e-02
 -4.37290184e-02 -7.81642646e-02  1.04131992e-04  2.34459154e-03
 -8.66301581e-02 -4.74201553e-02 -7.81449396e-03 -2.78812684e-02
 -1.40918428e-02 -3.94684859e-02 -2.79233269e-02 -5.49691543e-02
  3.05920746e-03 -6.10932373e-02 -6.25996739e-02  4.91522998e-02
 -2.73610768e-03 -5.22545204e-02  1.27191553e-02 -1.84366181e-02
 -5.77700995e-02  2.70472802e-02 -1.01652658e-02  1.33850137e-02
  1.61776841e-02 -6.30816594e-02 -6.04874305e-02  1.04275625e-02
  1.43309252e-03  2.29132045e-02  2.15044431e-02  2.38413084e-02
 -6.78774118e-02 -2.21807733e-02  6.38581067e-03 -2.59274002e-02
 -4.67624404e-02 -7.22813234e-02 -3.97592671e-02  3.52623127e-03
 -4.19792570e-02 -3.09236255e-02 -5.80915287e-02  2.42632348e-02
 -4.37723659e-02 -4.61464748e-02  3.37932147e-02  5.09737357e-02
 -7.03452900e-02 -3.84371988e-02 -7.44650215e-02 -3.50702740e-02
  2.72295456e-02 -5.42045385e-02 -8.54546502e-02 -9.31703597e-02
  3.33468057e-02  2.95953248e-02  1.76558923e-02  5.23637794e-02
  6.53093075e-03 -1.85019877e-02 -8.20508674e-02  1.85230945e-03
 -9.10349637e-02 -7.78756887e-02 -1.37168644e-02  4.32814248e-02
 -3.77362259e-02 -8.05560946e-02 -2.52311807e-02 -5.85845113e-03
 -8.05473626e-02  3.83371003e-02 -5.50162373e-03 -7.89826550e-03
 -2.68383860e-03 -5.30579202e-02 -6.86461553e-02  3.09469867e-02
  3.96938771e-02  3.68968993e-02  9.87410732e-03  1.97658781e-02
 -2.83052940e-02 -3.60053368e-02  3.34120803e-02 -2.74694003e-02
 -1.12729305e-02 -3.09233065e-03 -4.10210602e-02 -4.49259095e-02
 -8.13865662e-02  1.87301934e-02 -1.34068343e-03 -6.09829202e-02
  1.57381315e-02 -6.03442080e-02 -6.24454990e-02  3.00842002e-02
 -8.87187198e-03  3.59547772e-02 -1.25924483e-01 -4.61831279e-02
 -4.65091914e-02 -9.11873728e-02 -5.14355861e-03 -2.45931540e-02
  3.01801320e-02 -7.75501505e-02 -4.20641676e-02 -3.44346394e-03
 -8.21567699e-02 -4.34194393e-02 -6.52246922e-02  4.38589677e-02
  8.65405053e-03  2.29669977e-02  1.98244750e-02  5.37337996e-02
 -7.95784742e-02 -8.23887512e-02 -1.10325016e-01 -8.88118800e-03
 -6.09601550e-02  4.06885967e-02 -7.12783134e-04 -7.69970641e-02
  1.71784740e-02  2.42326576e-02  3.53841074e-02 -6.28657965e-03
  1.58009119e-02 -7.85470530e-02 -7.77667901e-03 -7.01636523e-02
  5.55164821e-04 -2.13887133e-02 -3.65589894e-02  4.58818711e-02
 -4.12698388e-02 -9.76513103e-02 -7.04865679e-02 -1.24755120e-02
 -6.66103661e-02  4.07480113e-02  1.95404887e-02 -2.60205772e-02
 -4.74694371e-02 -3.73112969e-02  2.18375865e-02 -8.36363584e-02
 -8.35857987e-02  5.24965338e-02 -2.63716523e-02 -4.84828139e-03
 -2.96455249e-02 -2.18085572e-02 -3.58931161e-02  1.85484358e-03
  2.02578548e-02  6.77941227e-03  3.13444599e-03 -9.21902154e-03
  3.63178249e-03 -3.52710448e-02 -4.06721979e-03 -3.99522632e-02
  2.77648401e-02 -3.95993181e-02 -7.41676539e-02  3.90912667e-02
 -5.82409371e-03 -5.30589297e-02 -6.52320869e-03  1.94840692e-02
 -4.77818362e-02 -1.86914001e-02 -4.87476513e-02 -7.09203705e-02
 -4.65068128e-03  4.51862626e-02  6.39592391e-03 -6.18642457e-02
 -3.04366685e-02 -2.56036017e-02 -3.16382125e-02 -1.03221737e-01
 -3.02626938e-02  1.88867655e-02 -4.22786139e-02 -7.25242123e-02
 -3.83894593e-02 -9.78115797e-02 -6.48933351e-02 -8.99126083e-02
 -9.30757169e-03  1.88277643e-02 -5.10998406e-02 -6.40579015e-02
  1.91616500e-03 -4.56211343e-02  4.58951620e-03 -1.29275015e-02
 -1.26693379e-02 -9.03660506e-02 -6.30529076e-02  4.11297567e-02
  3.19217332e-02 -4.94523644e-02 -1.14159482e-02 -4.28899284e-03
 -3.22056748e-02  4.23169024e-02 -6.15512431e-02  1.30290370e-02
  2.99242847e-02 -6.72796229e-03 -6.20753579e-02 -6.82024211e-02
  1.00065479e-02  9.37532168e-03 -4.80978144e-03 -1.61419495e-03
  2.60118674e-02  3.12752202e-02 -3.74027751e-02 -8.56511369e-02
  4.91851009e-02 -4.26649339e-02 -6.86930791e-02 -5.60570769e-02
 -5.78190014e-02 -6.17876537e-02 -1.35322303e-01 -9.72506702e-02
  4.78740446e-02  6.57964498e-03 -3.56682651e-02 -7.51726627e-02
  6.13256032e-03 -4.43515740e-02 -5.52047752e-02 -1.01641491e-01
 -2.37208344e-02 -6.10705838e-02 -4.68533076e-02 -6.37006015e-02
 -3.97662036e-02 -3.59842815e-02 -6.78004101e-02  4.83227558e-02
 -2.38705985e-02  3.85842100e-02 -2.79257912e-02 -5.25199398e-02
 -5.44801578e-02  2.21217033e-02 -9.10352841e-02 -3.59300561e-02
 -6.56135939e-03 -6.90804943e-02 -1.85946058e-02 -6.77559525e-02
 -8.23129714e-02  8.75554886e-03 -9.50031653e-02 -3.81491706e-02
 -4.95635048e-02 -6.87325150e-02  3.16498391e-02 -1.90796156e-03
  2.39388682e-02  3.73435915e-02 -1.49035938e-02 -7.58019509e-03
 -1.00771904e-01  3.54960337e-02  4.99425307e-02 -7.67332837e-02
 -5.56438118e-02 -1.58374645e-02 -4.06269953e-02 -4.19492237e-02
 -3.13583165e-02 -6.73437491e-02  4.05314416e-02  6.17248416e-02
 -7.16916919e-02 -6.85620354e-03 -1.51064154e-02  1.10118622e-02
  2.42314208e-02 -2.71632019e-02  4.08304669e-02  2.97765378e-02
  8.63704365e-03 -6.96068332e-02 -8.83671045e-02 -6.83097690e-02
 -4.64396887e-02 -7.02825636e-02 -1.86573528e-02 -7.86854178e-02
 -4.91488501e-02 -1.99310016e-02  2.26823781e-02 -6.57842830e-02
 -1.09975450e-01  5.41244000e-02 -1.05389124e-02 -8.57318938e-02
  4.54136617e-02  4.96749766e-03  4.00272310e-02 -4.61030230e-02
 -4.74757515e-02  2.27108318e-02 -4.87340391e-02 -4.31809649e-02
 -6.09859303e-02  1.66151877e-02 -2.84697693e-02 -2.18405686e-02
 -4.92945239e-02 -9.38286260e-02  4.93900068e-02 -4.47736830e-02
 -4.42830175e-02 -7.86488801e-02 -7.43867010e-02 -6.44203350e-02
 -9.79091376e-02 -7.50886798e-02  2.86096316e-02 -4.87061441e-02
 -6.05622940e-02 -6.53516054e-02 -7.83960801e-03 -2.09839772e-02
 -1.03204302e-01  4.49728668e-02  1.95551887e-02  5.33916503e-02
  1.24714058e-02 -6.69442937e-02 -1.00401491e-01 -2.50906721e-02
 -7.76590779e-02  1.50693385e-02  2.25632382e-03 -2.95526013e-02
 -4.50113714e-02 -4.08444814e-02 -7.58449212e-02 -6.49495050e-02
 -8.00168291e-02 -4.10108157e-02 -4.46945205e-02 -4.29103710e-02
  1.82965100e-02  2.20845938e-02  2.40001287e-02 -6.87629730e-02
  1.57529290e-03  3.23059293e-03  4.24166843e-02 -6.84711561e-02
 -3.33545776e-03 -3.71018164e-02 -9.02224481e-02  7.17619900e-03
 -6.96689915e-03 -1.91212483e-02 -5.78098148e-02 -6.85766265e-02
 -8.44899639e-02  2.17494834e-02 -1.50086312e-02 -5.86823449e-02
 -4.81516756e-02  7.04151171e-05  3.52674983e-02 -7.53253102e-02
 -6.94072470e-02 -5.38571272e-03 -6.75963536e-02  1.07953446e-02
  2.51962189e-02 -9.68566397e-04 -8.28472674e-02  7.96045661e-02
 -3.79252655e-04 -2.13241670e-02  4.76553403e-02  1.96099468e-02
  1.98759828e-02  1.60854440e-02  3.03608272e-02 -2.64383014e-02]

Layer: encoder.0.1.block.1.2._packed_params._packed_params
Quantized Weights:
[[ -6   0  57 ...  17 -11 -13]
 [ -6  26  27 ...  27  20 -22]
 [  9 -13  29 ...   7  30  19]
 ...
 [ -4  47  19 ...   1  -7   6]
 [ 19  30  27 ...  13  -8  -7]
 [ 19   7  11 ... -29  40  16]]
Quantization Scale: 0.0012382707791402936
Quantized Bias:
[ 0.00241109  0.02511475 -0.025518    0.00782478 -0.01928309  0.00382076
 -0.02763509 -0.01419528 -0.02345104  0.01146494 -0.0272881  -0.02008695
 -0.02977177  0.00075148  0.02077577 -0.02019613  0.02479466 -0.02961663
 -0.03280623 -0.00188294 -0.00977209 -0.01406007  0.03216876 -0.02195119
 -0.02376008  0.01183253  0.01862846  0.02032297 -0.00576751  0.01778457
  0.04696736 -0.02991156 -0.01835362 -0.00529098 -0.0095525  -0.04146542
  0.01449455  0.0032763   0.01860653 -0.01630704  0.01948762  0.03398318
  0.02787279  0.01903897  0.01978798  0.00767362  0.03952828 -0.01875538
  0.02447083 -0.05311973  0.00961281 -0.02207613  0.00463246 -0.01601781
 -0.02973778 -0.02425478 -0.02078344  0.03852436  0.00968933 -0.03190804
 -0.02329587  0.0060964   0.02544718  0.0026391  -0.01759352  0.01529973
  0.01030925 -0.01390431  0.00198876  0.02248537  0.03285758 -0.00323641
 -0.00725089  0.01024263  0.03397506 -0.02333764  0.03556318 -0.00765882
  0.00932561 -0.0341767   0.01999323  0.01482918 -0.00124455 -0.00532986
 -0.01805025  0.03662535  0.04177667 -0.01007352 -0.01864521  0.00517833
 -0.02921454  0.00751273 -0.02493544 -0.03225712  0.00507678  0.01443307
 -0.00307736 -0.0041812   0.03194084 -0.01127963  0.01126599 -0.01784592
 -0.00432385 -0.0148852  -0.02573659 -0.02269327 -0.03058893 -0.03591677
  0.01761042  0.02638666 -0.03579985 -0.02261293 -0.04638872 -0.00304691
  0.00619078 -0.01307694 -0.00102491  0.00926832 -0.00394269 -0.00107434
  0.01968539 -0.019458   -0.00187888 -0.00501392  0.03469734  0.0013488
  0.04399898  0.01050734  0.0490135  -0.00575401  0.01391787 -0.01810586
  0.02938817 -0.00048729 -0.02645536  0.01194151 -0.01706901  0.03354641
 -0.01151824 -0.02360373  0.02640305  0.01772959 -0.02008445 -0.02921349
 -0.02871109  0.04344245  0.01372125  0.04080194 -0.0106951  -0.05352939
 -0.00791187 -0.00671137 -0.03224624 -0.02487993  0.00209046 -0.00739872
 -0.00914444  0.01854521  0.01414319 -0.00648512 -0.01576888 -0.02135403
  0.01976836  0.02495493 -0.01856245 -0.01935305 -0.02411212  0.02135022
 -0.00393763 -0.00745774 -0.02733873  0.0163419   0.03190268 -0.03020086
 -0.0036372   0.00542051 -0.01971137 -0.03104158 -0.01923826  0.0235927
 -0.03740694 -0.01608465  0.02930881  0.03750331  0.00313652 -0.01990577
 -0.02686512  0.01498563  0.01373478  0.00702473 -0.01608739  0.03981137]

