-0.07502457
-0.67660886
1.17480338
0.80251962
-1.01082897
0.42383420
-0.03645784
-0.57499599
2.58933473
-1.56151116
0.30511352
1.04587126
-0.06653431
0.44379276
-0.56463742
1.06583095
-1.40339863
-2.15213251
0.59668851
1.71791792
1.24779618
-0.17734048
1.66657031
-0.31590408
0.54156798
-0.21220610
-2.22347116
0.43508992
1.50552630
0.41148177
-2.17040968
-0.11518189
0.24493936
-0.73020887
-2.08924317
-1.04766870
-0.86997634
-0.48425063
-0.75669158
0.02124272
0.97056830
1.11164176
0.09128996
-1.96748447
0.43718234
0.00050367
-0.00208663
-1.36796975
-1.71781075
0.30204362
0.21155223
-0.55438727
-0.52959627
-0.18432626
0.23478514
0.54543108
0.57985485
-0.09727106
-0.50241470
1.49323547
1.28140461
1.23082983
-0.94005036
0.28019288
-0.05894252
0.10761904
0.58003855
0.03350481
2.58095336
-1.80347717
-0.43033296
-0.63263291
1.22403228
-0.02940132
-0.18832779
-0.01925058
0.18775065
1.37325454
1.08889472
-1.65088260
0.04487653
1.55946231
0.48789909
-0.72602093
-1.00139022
-0.08461218
0.91606432
0.56404209
-0.53160882
-0.31563586
0.84025300
0.72886896
1.33423126
-1.42077827
1.38861835
0.01208888
0.57805026
-0.12932470
-0.66807950
0.19703515
1.22282922
0.16203099
0.24770358
0.25929382
0.63234764
0.20592020
1.09093130
-1.02251792
-1.47515213
1.25604165
0.44842798
1.71859682
0.77411222
-0.57817066
-1.01674688
-0.42677364
0.18384606
-1.09366190
0.50153595
0.32015854
0.96377140
0.25816739
0.07055169
1.17260361
0.67879677
-2.70009422
0.98289353
0.43123466
-0.17979333
0.48504731
-0.27425849
1.57398653
1.00129223
-0.58510786
0.48956674
1.85547876
-0.30329213
1.10821652
-1.13333797
-0.63591671
-0.88185251
-1.04038715
-1.45620000
-1.97834170
0.69594550
0.09117948
-1.17962289
0.07358388
-0.93578839
0.60194552
-0.60076457
0.57708400
0.21546987
0.40575248
0.10788079
2.19450068
-1.17520213
0.16604133
-1.70336819
0.56200260
-0.04521553
1.04151857
0.95517558
0.93705207
-0.30150566
-0.01822679
0.71409291
0.38763532
-0.16241936
-1.42113185
1.05414307
-0.39313215
-1.32836008
-0.41511652
-0.11595447
-0.89377701
-0.77686924
-0.63099343
0.12961647
0.71921527
-1.05109942
0.33949137
1.07401729
-1.15694618
0.79218388
-0.58011550
0.48149192
-0.48004752
-1.34966362
-0.75905865
0.47703412
1.19721746
0.48758954
-0.09348471
-0.07093973
-0.56284750
1.00452030
-1.93940258
0.34082910
-1.40682805
-1.27863181
0.38607636
1.66130710
0.96710187
-0.54119557
-0.22724882
-0.35122558
-0.55784488
0.49237257
0.46522447
0.26514348
-0.10176282
-2.29827261
-0.58496511
1.03812551
0.68969160
-0.67175889
1.38873863
0.04467065
0.66976416
-1.47929132
-2.55848598
-1.00033307
0.64446759
0.22041863
0.71332389
1.71189570
0.37222016
0.75243473
-1.42079723
0.43244287
-0.89796776
0.30163196
-0.43155485
-0.64627916
-0.57401788
1.15192854
-1.16427565
-0.10998863
-2.87373304
0.91554105
-0.64851642
-0.30938238
0.95144606
0.21034622
-0.26878658
-0.24543804
0.68443817
-1.22244668
1.09826148
0.07469604
-0.12227891
0.04241733
-1.76234245
0.67744660
-0.44866458
0.29746339
0.49285388
-1.60861838
-0.28430960
-1.29874659
-1.51473296
-0.41544718
-0.39787874
-0.52773297
-0.85713798
-0.78163528
1.06945598
0.36526135
-3.13615561
2.14900470
-0.63714176
1.25920153
0.15367337
0.58999348
-0.65208077
0.91111946
-1.56494892
0.58400244
1.64783502
0.35012621
2.07767653
0.66658932
1.18238127
0.24606536
0.26413903
-0.39111811
-1.33135188
-0.17200254
-0.26505113
1.22108245
0.59128863
1.19856882
-0.49708378
1.46088839
-0.60200828
1.49642718
0.07457678
-0.45061073
0.60553062
2.04963779
-1.57082105
-0.72291124
-0.18449587
-1.22015667
0.95691270
0.00801244
1.18840683
-1.66311383
0.96258444
-1.93121958
-1.79112875
-2.06047988
1.28245890
-0.20357341
-1.32091260
-0.91380596
-0.40211704
0.49057746
-0.55670083
0.28943270
0.04524634
2.20735884
0.28215405
0.54931641
-1.26857328
-1.36405873
-0.63596517
-0.26100078
0.30146271
-0.20915854
0.49324363
1.05361962
-0.63369310
-0.81457669
0.49242580
-1.13886523
0.48094118
-0.58373964
0.90254003
1.78406680
1.38410425
1.98785925
-0.84529883
-1.83612943
0.66956890
1.22143269
-0.29866412
1.26008511
0.62097138
-0.20862885
-1.81266844
0.67849076
-1.07713819
-0.79300833
-0.03894493
1.97858214
-1.64800274
-0.10964628
0.08757509
0.17713520
0.73291147
-0.85145128
-0.14697598
1.63300407
1.10794628
-0.22842717
-0.84442347
0.43052262
-1.78735995
0.87300432
-0.83895105
0.65782422
-0.78801256
-0.95868379
-0.70858169
-0.89243823
0.69889468
0.58183515
0.43759379
-1.09973526
-1.64218688
-0.63704532
0.21925123
0.10162149
-0.30140191
-1.22475755
-0.30879518
-1.69912124
1.21000814
-1.15386379
0.34889159
0.66618454
0.37458730
-0.15694448
0.28316197
-1.05905628
-2.00416017
-0.29698569
-0.98635978
-1.29505837
-2.19705486
0.30782238
-2.28245020
-1.22623610
1.41970491
-0.44000110
-0.62173426
0.34004396
0.61602622
-1.32021475
-2.58763742
-1.20368385
-0.76789486
-1.06231105
0.25660589
-1.10239732
1.12014771
0.08311936
0.34629464
-2.81609440
-0.14098307
-0.06359231
-1.35116303
-0.11969465
1.22828388
-0.70951551
-1.17212844
-0.25743547
-1.33416891
0.16598512
0.64368653
-0.13059957
1.18633783
2.47239423
-1.39449692
-0.57191193
1.21498609
-0.50906837
-0.21881679
-0.22038084
0.75514221
-0.60207725
0.15372977
-0.29227617
-0.57444459
-0.10728822
0.93396634
-0.99698323
1.30988955
-0.05245666
-0.32241204
-2.32545114
0.28037590
1.48481786
-0.67966908
0.40087411
0.85116374
-0.53122854
1.40506160
-0.32251537
0.13197920
-0.71746421
-1.84486556
1.41130877
0.24800143
-0.42816070
-0.75140619
0.54648089
0.31741443
0.24507877
-0.98622966
-1.39838552
0.66777122
0.14675346
0.32573882
-0.34891906
-0.70599061
-0.38478512
-0.94578218
1.78833115
1.39310360
0.30292869
0.65845078
-0.80792916
-0.19143160
0.89479411
-1.26261473
-0.27613175
0.56171787
-0.86772108
0.56236720
0.36904281
-0.00139395
-0.22743422
0.80731559
2.28938961
-1.48470306
0.93525290
-2.38195515
0.05813832
-0.25656632
-1.21422732
0.96194321
-0.11969825
0.54619426
-2.02939606
0.17564428
0.15051427
-2.83351183
0.91315067
0.31347036
2.03660631
-0.60318136
-3.45966268
1.13004100
-1.31702924
-0.31046098
-0.95826101
-1.74734199
-0.77104086
-0.86084169
-0.15313019
0.78889853
-0.09617305
1.75843847
-0.95645988
-0.64114821
-1.66198945
0.23555107
0.43779019
-1.10403931
-0.17618322
0.06376496
1.71981144
1.53036785
1.30758679
1.62168169
2.09222865
-1.59748006
1.82356071
0.80290085
0.30366632
-0.67197180
-1.23525441
0.22189872
-0.74756122
-0.17225803
0.52203339
-0.60616428
-0.42496929
-0.96374828
0.63959080
-0.48114601
-0.04510408
1.29617178
0.43406165
-0.87777084
0.02320927
-1.84567904
-1.06869507
-0.27809897
-0.85025102
-0.55815941
-0.16339026
-1.03048742
-2.10718441
0.30374286
2.28768277
0.55282372
2.82128906
0.28098056
1.06727278
0.04049173
0.01354267
0.05598890
-0.32255012
0.04126708
-0.44209439
0.54925543
-0.15542713
0.47209054
0.14453794
0.72244227
0.98457140
-0.68817449
-0.21778910
-1.52720630
-1.33987880
-2.67070270
0.64533037
0.60529095
-0.52874297
1.35619509
2.48177004
-0.17622797
-1.25736988
0.64137650
1.30117738
0.87686980
-0.43165147
-0.12436298
-2.13147902
-0.31600261
0.92402625
0.87103087
-0.36558238
1.70703697
0.10639725
0.11815889
-0.10621782
2.14562106
-2.12496042
-0.18989654
-0.50905436
-0.45782968
0.99222988
-1.43742549
1.74621677
-0.00860300
0.69514346
0.47907415
0.17534307
1.61688578
0.34645978
-0.36254326
-0.46216217
-0.17424418
-0.64859194
-0.75600690
0.04585696
-0.90418762
0.72980553
0.14889279
-0.13576743
1.73865938
-0.81522387
-1.13905573
-0.22307971
-1.46693015
0.64051580
0.88552165
-0.32193720
0.25955001
0.25034374
-0.19955203
1.00654149
-0.35029706
-0.16083455
-0.37414414
-0.75569266
-0.06693536
-0.19646673
-1.52478850
-1.02320611
-1.42800963
1.81557393
-1.07115614
0.79297119
-2.50364900
0.71004164
0.24239308
-0.32777581
1.03043711
1.52383566
-0.06588296
-0.41648680
0.65174395
0.77369499
-0.37893853
-0.15425344
0.34031764
1.02084875
-2.72246242
-0.53528118
0.43021059
0.41693777
-1.73796535
-0.83414251
1.56043935
0.15132837
-0.56406224
1.07233560
-1.00082815
-0.57876909
0.04146796
-1.30083120
-0.34817728
-0.53149289
-1.96264505
1.95307195
-0.27811348
-0.53179729
1.51619780
-1.37843597
0.18762910
-0.39530736
0.68948835
-0.09685657
-1.06440806
0.99054843
0.32994175
0.31339797
0.98056233
-1.13546789
0.62443137
-0.24334577
0.67731071
0.65416795
0.74920434
3.07505226
0.26031861
0.36229566
-1.29398954
-0.34214771
-1.64103842
-2.64008284
-1.02106237
0.11055246
-0.64594972
-1.27490234
0.40579584
-0.73816729
-0.75807184
-0.97096610
0.02248507
0.82507837
0.47595730
0.45813847
-1.37106168
0.10078151
0.76739383
0.71539718
-1.14131713
-0.58192098
0.90041465
0.40179139
-0.40271479
-1.15941274
-1.81086898
-1.30162084
-0.55249649
-0.94492722
-0.94098318
1.49330199
-1.50856912
-0.24057093
-0.94924766
0.83440876
0.35622939
0.04539102
-1.13347006
-2.77005935
0.06272481
-0.93310136
0.29227698
-1.48552191
-2.06743360
-1.69380486
1.45323265
-1.34864891
-3.20162797
0.06012805
-1.26822186
0.70496321
-0.52025759
-1.36816287
0.16239421
1.06489408
-1.35365903
0.57313323
1.92201638
1.19832969
-0.91345924
0.28425685
-1.03825140
-1.00726819
0.68096143
-0.60602826
-1.24992037
-1.84949553
-0.71985251
0.74255055
-0.85069573
0.96272618
2.62246037
-0.34138346
-1.94079804
-1.49548948
-1.10389900
0.55790186
-2.45003057
-0.72527242
0.90492827
0.74040389
-0.20403367
0.33375680
-0.53640616
-0.18396583
0.19679864
-1.09275877
0.04150207
-0.95972747
-0.08609119
-0.57960075
0.27590603
-1.96792364
-0.57843238
0.77848828
-0.04916023
-0.19836012
0.00636309
1.64412832
-0.15864217
0.34370342
-0.01962737
-0.25426325
-0.21306626
0.69518697
0.02363261
1.73522282
-1.91008770
-0.49361321
-1.13941514
-1.43139219
-1.21392286
2.93327594
3.04412746
-1.15306079
-1.58997655
-2.26665235
-0.73891252
-0.67385769
-0.46503490
0.35521239
-0.37692329
0.34378496
-1.50608313
0.99466199
0.76075286
-0.27768075
2.36958814
-0.85668629
1.47816026
-0.73183548
-0.15541154
0.41488823
-1.99247313
0.65162593
0.03465600
1.27342069
-1.85305917
-0.49733558
0.40561816
-1.95407176
-1.81436872
-0.39061800
-0.05605326
0.19369422
0.60514373
1.45787239
-1.56576276
0.65980661
-1.22280931
-0.25913113
1.76587784
0.88459235
0.12480950
0.49787101
1.39931107
-0.09944846
-2.11019969
-0.21190012
-0.70549685
0.15706642
-1.98256481
-0.38101548
-1.14897335
0.91409707
0.11473573
-0.46000433
-0.10257892
-2.25750971
-2.26144528
-0.89235806
-0.43755907
0.86410141
-0.54770964
-0.06893361
1.41064847
1.10371554
0.44889942
1.15668702
0.09072181
1.91047335
-1.30493176
1.25165212
-1.33121514
0.29706720
1.73083627
1.95505095
-1.89185512
1.36788940
-0.06703437
-2.49663115
0.08721462
-1.08989000
1.11926365
0.92200041
-1.02650142
0.04914656
-0.60088176
0.80941606
0.50124758
0.73737323
0.77671421
2.22800207
-0.33871493
0.60626316
-0.38482770
1.17293072
-1.41786492
-1.62670279
1.42836356
0.74044842
0.20285836
0.15956907
-0.73231089
0.66536254
-0.15066135
0.51437020
-1.17793500
0.41885203
-0.29479945
-0.18954434
-0.56138623
1.54834294
-0.81890082
2.30864882
0.66053265
0.49688995
-1.45573223
0.22800730
0.05659766
0.74491256
1.68934810
-2.23959327
0.06997927
-0.30453673
-0.88536769
-0.38622919
-0.27903676
1.95442128
-0.39479309
-0.40981817
0.36275673
-0.87472248
-0.81511450
0.89733022
-0.13860603
0.03664482
-1.23352909
-0.87356031
1.41553605
0.74716759
-0.74815488
-1.29476988
-0.88673002
-1.01733077
-1.01433635
-0.12392727
-0.62601221
0.95284110
-0.42754272
1.23399711
-0.24246386
-0.90257305
-0.56936198
0.57985127
-0.08190655
-1.79631650
0.13343881
-0.72377849
1.78229940
1.46791005
1.18736756
-0.57204175
0.41832539
-0.26617181
0.82732189
0.67025918
-2.11850739
0.01959327
-0.66484195
0.00367155
-1.06657469
0.22742315
0.63867515
-0.99322969
-0.35561168
0.18965341
-0.76755077
-2.39597440
0.99490649
0.35549361
-0.40641853
-1.08091986
-2.82339478
-0.48883912
-1.24884045
-0.35694030
-1.78206623
0.43172166
-1.80706835
-0.33882889
1.60148764
0.78907710
1.06720889
1.28588903
-0.46456045
1.39277124
-0.06378127
1.57571685
0.00654880
-0.83726966
-0.39387912
2.14212465
-2.32528353
0.91864985
1.28956270
0.74204987
-0.62557167
-0.94227999
-0.80912143
-0.73507130
1.49070656
0.40779725
-0.15174457
-1.69603086
0.01317202
-0.18495280
0.65202564
-1.19174290
1.29318213
1.32647491
1.51125228
0.19241171
1.07982409
-0.37305734
0.00987101
1.25121427
0.17168325
0.55154735
-0.48357087
2.49058509
1.54810882
1.44071019
-0.06854205
0.17786439
-1.66414189
0.17311729
-1.28229010
0.59520566
-0.16735752
-1.87272716
1.28180301
0.10551769
0.35155496
-0.12018707
-1.34181440
0.17578804
-1.17129695
0.50697207
-0.52186137
-0.22777687
1.56923676
0.22044918
-0.70164269
0.50204545
-1.16960132
-0.36600456
-0.44901708
-1.05284464
-1.27434659
-0.45478246
-0.90888733
1.23192024
-0.45278358
0.73105830
0.72119361
0.66564971
-0.39399785
-0.75833464
-0.17623605
0.29911071
-0.16131897
-0.61507523
1.10784209
0.54340249
-1.01957536
1.22142041
-0.34561676
-1.41897857
-1.09609425
0.97168016
-0.09459437
-0.34759340
-0.42972973
-0.79233944
1.31431413
-0.02206769
-0.03375135
0.00180165
-0.23353902
-0.26537111
-0.50958157
-0.56893033
-0.08187101
0.25873882
0.58510458
-0.55016935
-0.39407748
-0.70477748
-1.28734398
-0.83199829
0.55735731
-1.56581819
1.35783851
1.11318970
1.51783884
1.35079610
0.10103777
-1.07575667
0.03529493
0.50539523
-2.48306656
0.70520008
-0.14551313
-0.88561922
0.92073673
0.37868655
0.15799512
-1.98504543
-0.78587842
-1.85814023
0.43125850
-0.73180854
0.13170154
0.07836863
0.16293530
-0.40588453
-0.70290792
0.96554947
-2.13094807
-0.23598623
1.90384400
-0.59749091
-2.25641251
1.06469405
-0.54689646
2.40296459
1.46514416
-0.17885999
-0.03701571
-0.64046675
0.75250804
-0.71654862
-0.91163749
0.06952172
1.46868861
0.85223997
-0.85755634
1.49489439
-0.25806236
-1.05136263
-0.52914292
-1.37547743
0.06724180
-1.51419497
0.39429402
-1.94171536
0.69102728
0.04073351
-1.13366580
1.48514295
-0.07826065
-0.10238171
0.23233940
0.50677526
0.53071821
0.61957854
-1.94140756
-1.05573905
0.04432074
1.39644909
1.34202373
0.33838871
-0.65000635
-0.81102473
-0.47094008
-0.58756959
1.73533368
-0.12487894
-0.06526525
-0.45609349
0.93850946
0.04217877
-1.66295123
0.46470651
-0.75141716
0.43948200
2.11386847
-1.62986600
0.00378087
-0.64788228
1.16431260
1.02031779
1.12018263
-0.10483419
-0.16070704
1.26277900
-1.59174442
1.34139383
-0.23565584
0.42047155
0.29333043
0.20636170
-0.39293790
-0.40113482
1.09154367
-0.45971909
-0.52293527
0.67505181
-1.77393115
-0.83623987
-0.75695348
0.29779184
0.01082439
-0.55949324
-1.19579327
0.10958778
0.59300351
-2.11375952
0.58482629
-1.33714247
-1.05798745
-0.76629341
-0.10919045
0.64388973
-2.03575802
1.22706020
0.54278558
1.64495933
-0.34292892
-0.66416055
-0.14563672
0.13189276
-1.80705392
-0.89871687
-1.60515261
-0.44718412
0.81095493
0.82806182
-2.27966666
0.87123609
0.64387840
-0.49004242
-0.26034680
0.37447974
0.43863958
2.48953176
2.20330024
0.42021742
0.59212369
-1.60585141
-0.66094232
-0.02069716
-0.81370044
0.90552449
0.33536842
0.78571022
-0.28764379
-0.17841560
-1.79006934
-0.87151599
-2.19624352
2.02138829
0.99836731
1.24460196
-0.69229311
0.45477015
-0.54624385
-0.33967829
-0.18095899
-0.17297262
-0.16225085
0.36675715
0.54295725
-2.73500943
2.02075624
0.21714024
0.78790337
-0.67069691
0.65943408
-0.69291162
0.17427842
2.91909027
-0.71328175
-1.31684661
0.57217330
-0.26728654
-0.46225080
-0.04519242
-1.36221194
-1.22992313
-0.90325570
1.47805858
-0.60308981
-2.49134421
0.06006444
1.15553248
0.18440972
0.29924920
-0.63527554
-1.17441070
-0.12404636
-1.10830307
-0.76077807
0.52585298
-0.87892783
-1.91443789
0.42508429
0.36472538
-0.88067722
-1.50838459
-0.37320378
-1.58045709
0.20168078
0.59870541
0.38346475
1.24884379
1.15469646
-1.21851027
0.14257695
0.07480162
-2.08990502
0.77525806
2.78689647
-0.97839516
1.26011240
1.17680418
2.36633205
-0.42845839
-0.61294842
0.37398782
0.92380852
-0.87254173
1.90760386
-1.49828076
-0.07153548
0.36102647
0.16945784
0.39327458
0.17610468
0.16200158
-0.87003839
-1.67035925
-0.09609450
-1.02616560
0.77407444
-1.21516836
1.22181976
0.85900617
0.31546479
-0.37769830
0.34067634
-0.95905119
-0.39678341
0.28387523
1.64694071
-0.80857003
0.95852542
-1.90207601
-0.43483067
-0.05371080
-0.14592308
0.88895220
0.37816393
1.06606746
0.73398173
-0.36969370
-1.45874298
-0.01063884
1.37096238
2.53373218
-1.58512294
0.24361476
0.92041653
0.47490859
-0.56480837
0.18979579
0.92138362
-0.26067492
0.11757227
1.03594017
0.43835908
-0.31361288
-0.49009454
0.79500860
-0.99173307
-1.22404516
0.34467208
-0.80523175
-0.69018519
0.43220225
-0.47836554
0.88530022
-0.23543696
1.46487641
-0.58581102
-1.11539531
0.12540448
-1.11316133
-1.24309969
-0.52947176
-0.04969712
0.04754617
-0.27768815
0.32759210
-0.57750916
2.38181067
0.20689389
-1.54793489
0.54721761
-2.32000399
0.50321972
-0.06836831
0.10225461
0.09242751
0.87652284
1.74147952
-0.28829834
0.38981953
1.17912400
-0.31798705
-0.75510854
2.31469917
-0.23417978
0.36877924
-0.04048831
-1.07403970
0.96312058
-1.09555221
1.27581358
-0.59513104
-0.32859269
0.59988821
-0.80692935
-0.03470049
-0.34243190
-1.57317281
-0.62429392
0.27172241
-0.41493335
-0.17774884
0.73549455
-0.01259329
1.12307060
-0.62157112
-0.62030667
1.20966995
0.65037084
0.80149639
1.17701244
1.80436361
1.22744143
-0.76862240
-0.36795107
1.56165063
0.98183143
0.15181851
1.63738525
-0.65477747
0.47758850
-0.06273071
0.92158020
-1.56015193
-1.56734979
-2.04838300
0.60631782
0.72149312
-0.08238034
-0.87524754
1.08408129
1.39414322
1.23248398
0.81835920
-1.33437157
0.38936684
-0.75285089
-0.12430262
-0.66196460
0.02381887
1.30084813
-1.41138434
-1.49217439
0.57141316
-0.62626565
0.34644923
0.41426554
-0.52326488
-0.89665788
-0.48078519
-1.41637528
-0.37299603
-0.12835124
-0.12523538
-1.39788103
-1.28000033
-0.02593610
0.81682235
-0.01495953
-0.52041000
1.41259563
0.00887298
1.13835812
0.37338108
0.21556772
1.11815202
-1.22038007
0.16334152
1.54455352
0.35725072
-0.51409537
-1.76911891
0.16270728
0.36342728
-1.24442089
0.18414286
-0.41559333
-0.07266212
0.94723672
-0.36523139
0.93674707
1.67888951
0.47257903
-0.86362410
-0.02574189
-0.85461706
-0.07852585
-1.63395286
0.07320289
-1.16320550
1.62083304
-2.01627541
1.83381224
0.43698528
0.41202801
0.47504225
-0.89241499
-1.38692009
-0.34464195
-0.48005345
-0.70917374
-1.49491847
-1.07861793
-0.37456438
-2.24406219
-1.13471854
-1.02079558
-0.21872427
-1.47897136
-2.22078609
2.08424377
-1.02122283
-0.31896773
1.28833282
0.03412161
-0.12664403
-1.28750765
-0.01179268
0.10291719
0.49501646
-0.31257546
1.08354557
-1.65289187
0.85104942
-0.05269182
0.28784472
-1.34321916
0.56241590
-0.67326230
1.77880299
0.19895817
0.93669355
-0.01098696
0.40963313
-0.18541606
1.05740249
-0.06578716
-0.63858885
0.76807493
1.08545899
-1.04341376
0.32281253
-1.58042359
0.69321406
0.61897308
-0.37935129
-0.17156850
-0.11923713
-0.65315163
1.46588016
-1.11703384
-2.57193923
-0.52674687
-1.17500722
0.13978499
-0.40365431
-1.44491696
0.04087370
-0.26471180
0.87535632
-0.52022260
-0.11450052
-0.85405904
-0.43174928
-2.16069531
-0.53844440
0.55049193
0.33949852
0.25342622
-0.92249125
0.19221330
0.48778659
1.75000751
1.63205230
0.04741114
0.22304976
-1.54822719
-0.57026857
0.97454196
-0.51428002
0.12121260
1.61146557
0.56804115
0.43174937
2.00125027
-0.64869213
0.41881508
1.68057871
0.85298747
-0.56514317
-1.39667773
0.96889222
1.31329727
0.83026761
1.12892735
-0.19216646
1.12356293
-1.81142187
-0.50243735
-0.23448275
-1.14197397
1.02157223
-0.60420209
0.80424827
-1.17565644
1.96508694
1.00988269
-0.50169218
1.40430856
-0.39979270
0.05549899
0.25682250
-1.61439323
0.32693455
0.07405084
0.16738071
0.06185000
1.00674319
1.52947223
0.26188827
0.63679904
-1.31121397
-1.53374898
0.53490192
-1.00347698
0.63015527
-1.15526164
1.57048297
-0.34847331
1.64098048
-0.66468465
0.83077300
-0.26277339
-1.72650146
0.70437115
0.35219824
-0.70043093
2.51770258
-0.48183659
0.60114819
-0.62642801
-0.42099077
0.39457366
1.93212593
-0.80594605
1.95091593
-0.83834320
-0.63388723
0.20652367
-0.16050056
1.74200320
0.56297493
2.13802242
-0.47898686
-0.81463701
0.68598652
-1.21682012
0.04210757
1.19512784
-2.17318344
0.08774614
0.88301754
0.43110389
-0.68605959
0.27052140
-0.59254467
-2.77414036
0.73817164
-1.07791972
-0.50968826
-0.03992156
-1.34788084
-0.50905973
0.13330895
-0.49190512
0.21497135
1.44961727
-0.34515017
1.63515890
0.55387396
-2.12998605
1.02141392
1.44007802
-2.01767278
0.84870422
-1.55381823
0.99589729
-0.73981071
1.08552301
-0.61685377
1.13991106
-0.79369223
-0.66680330
1.58582461
0.65459526
-2.38128090
2.99245048
-0.44643211
2.76246476
0.12357412
-1.28389645
1.57542646
-0.31897882
-0.08357576
1.96907485
-0.14466688
-0.58589870
0.00350084
0.96489429
-1.10762548
0.70363432
0.29030633
0.53281021
-0.97544277
-1.28237963
1.43889976
0.20792238
-0.82156408
-1.66710353
-0.38206130
-0.03298133
-0.06206004
0.94183612
0.61316657
1.63353717
-0.47548997
-0.51655865
1.05253041
-0.81195569
2.51380491
0.69716835
-0.92979079
0.80036116
0.77088577
1.45817816
-0.44403803
-1.26693249
0.68229759
-0.94144392
0.40653160
0.17595467
0.48888016
-0.23235950
-1.28797340
-0.66174048
-0.13520470
1.68725073
0.10729969
-0.55260599
0.60887384
-1.71118271
0.56405503
0.87913984
0.32000169
-2.17927623
-0.83691800
1.93922913
0.00520839
1.25252867
-1.17653477
0.83061445
-1.57774699
0.18492740
0.71240169
0.61524230
-2.69393063
-1.50623894
0.48646164
0.70702910
-1.00857723
1.18908274
0.28246081
-1.78763580
1.10109687
-0.75303859
-1.62814569
-1.92251921
-0.42967474
-0.47194499
0.28146553
0.58622503
-0.97442150
-0.00739329
-0.53171796
-0.83497262
-0.56775516
1.20813739
-1.11491263
-0.01222318
0.61090648
-0.38630036
0.25461206
-0.94462633
0.65088528
-0.13015135
1.00757575
0.49081662
-2.05277109
-0.24993525
-0.83444917
-0.67687857
0.93084943
0.81286836
0.35966977
0.30851653
1.24176216
2.12006855
-0.95261705
-2.08074284
-2.62004352
0.28845787
0.46130177
0.90786338
-0.32803530
-0.57960278
-1.58353472
-0.39209715
-2.06826758
0.04589173
0.51142424
-0.17739409
-0.56582493
-0.91671693
-1.71537149
0.55989325
0.48883304
0.07373668
0.28610635
-0.28174329
1.19482100
1.23876381
-0.19957332
-0.48460448
1.26376379
-0.06350438
-1.60214174
1.04262912
0.95851487
1.15403163
-1.10342848
-0.32844844
-1.84082508
1.16951883
-1.99834573
-0.66175598
1.60582912
-0.51503170
0.97181451
0.86808234
0.00829819
-0.70053637
0.82637572
-0.25590220
1.64584839
0.60226983
-0.24541655
0.11817365
0.90529943
1.06249869
-0.02102635
0.79724306
-0.32175004
0.49606070
1.45351017
-0.63318074
0.53590941
0.29969683
-2.04644561
-0.80294394
-0.49176881
-1.10769176
0.27980340
0.56157386
-0.49404159
1.07919037
1.58594644
-0.15224433
0.19264600
-0.46988738
0.37129149
-0.20323792
-0.22644591
-0.45382202
-1.32832170
0.04070476
0.02932102
-0.21959601
-0.47452539
-1.46016562
0.22151098
-1.19512427
0.75236368
0.63761216
-0.25873673
0.16983651
-0.20377481
0.02009466
-0.16560268
-1.19614553
1.80976379
-0.68698329
2.32665896
-0.15896988
0.93870783
-1.98598135
1.19933808
-0.01893337
-0.91051280
1.16966128
0.29097661
0.05248600
-1.73749554
-0.53950405
1.03961253
0.27976364
-1.31542301
-0.18501893
0.36938652
0.99331063
0.12612465
1.61108100
-0.74296045
1.25880361
-0.59356558
0.86191648
0.49139005
-1.04068422
0.26545498
-0.66723359
-0.14846492
-0.96167004
-0.32320198
-0.86386079
-0.77160555
-1.36633432
0.35381407
0.07756028
0.62083119
0.56822640
-1.80492389
-0.12411996
0.93320394
-1.34532666
-0.71035004
0.00051921
0.98436517
0.54902589
-0.21987823
-0.83445472
2.24892211
-0.51207799
1.42905533
-0.52010536
0.15266530
0.87353325
0.34063247
0.24897286
-0.01680488
-1.02031958
-0.20043379
-1.55806422
-0.15142892
-1.00347209
-0.18767029
-0.70510143
-0.52234387
1.44108355
0.77052218
1.20295990
0.67717439
1.62348950
0.82969677
-0.21160093
0.08124357
-1.08597374
-0.91806835
0.66410124
0.42489228
0.49900970
-0.85803741
-0.60742784
-1.67643535
-0.29924825
1.17729533
0.27260533
0.03497377
-1.71963692
0.31907335
-0.37343523
1.96197534
-0.24098076
2.12656331
-0.59450787
-0.52661896
2.31846285
-0.68688166
-1.29303730
-0.76880497
-0.21666819
-0.27422237
-0.38374916
-0.11989290
-0.56365085
-0.46088222
1.05805910
-0.63629317
-1.22666252
0.31157130
-0.43848142
1.20931578
-0.43737715
0.63310647
-0.79711580
1.62593734
0.46436632
-0.48537084
-0.83116466
-1.67617428
-0.19538634
-0.84915864
2.51457930
0.40342635
-0.02741740
-1.32049906
1.12592196
2.01366115
0.26835904
0.12594455
-0.28163597
-0.17442733
-1.76246798
-1.32412338
0.37025884
2.11007595
0.72015363
0.18682936
-0.40884447
-0.35103977
-1.09480739
-0.20986098
1.06007743
-1.38407338
-1.08269548
1.56630862
0.13649447
2.29122615
0.39674452
1.17950356
-0.21533374
-0.10633279
-1.21039999
-0.14174186
0.10317665
0.83610862
1.60205007
0.83518511
-1.25099874
1.57730210
0.64293951
-0.05486873
-0.72366691
-0.79277682
-0.90266138
-0.81521934
0.10859951
0.01709038
-0.02624301
1.41880453
0.87079769
0.43937361
0.23570888
0.03882598
0.61788690
0.32793200
-0.24127981
-1.07683873
1.16269588
0.07659929
0.53239214
-0.19659764
1.40009224
-0.11767663
-1.47989678
2.06767368
0.21030799
-0.14671560
0.77207732
-0.15067866
0.12069076
1.28214800
0.38837430
0.11032981
0.15352826
1.95057905
1.10976005
0.53443009
-0.17290869
-0.29729268
-0.43699610
-0.58895278
-0.87118739
0.43513730
0.25119296
-0.80906934
0.95806062
-0.35539743
0.31807002
-0.55394143
-0.48168772
1.22784352
-0.33481547
-0.93976957
-0.03538505
1.18024194
-1.63983929
-0.24438663
1.79897940
-0.14558420
0.17209935
-0.24694979
-0.24738362
1.26288795
-0.90564841
2.00064087
0.51292711
0.98736835
1.25602376
-2.62342072
0.64113265
-0.23386279
-0.53263605
1.01487207
1.36641157
-0.36997706
-1.31272924
-1.52456486
-0.96890724
0.22711641
0.50724405
-0.86564583
1.73699677
-0.35303369
1.50880039
-1.33526671
0.61893713
0.62800425
-0.24237888
-0.01943685
0.17735246
1.91091418
0.82398582
-0.79018253
-1.29240048
-0.78859258
0.75493366
-1.64083624
-0.28383175
-0.17586148
-0.31256831
-0.34812620
-1.50611150
2.03156424
1.88571644
2.18442965
0.03474361
-0.47026181
0.28505179
-0.79664046
1.86830878
-2.17542458
-0.32907876
1.42006814
-1.01595402
0.93326545
0.34339684
0.00592803
0.20225976
1.51738608
-0.76471061
-0.87823534
-1.38477719
1.52191734
1.85717249
1.19826078
0.44728079
1.11761057
-0.63997388
1.30262995
0.35622436
0.07863184
-1.51082766
-0.57646811
-0.89827800
-1.31890035
-0.58291996
2.71716022
-3.00286412
-0.96586859
-0.59730184
0.01329547
0.26034516
-0.63277209
-0.85488820
-0.52674371
1.16665125
-0.45928565
0.77003676
-1.92740107
-0.47394472
0.67490852
-0.35464764
-1.35845315
1.46213663
-0.73777211
0.99628311
-1.45608234
-0.48962316
0.45169050
0.81148356
-0.29987279
0.25711462
-0.04519826
-0.24055530
-0.42165917
1.38952684
2.30448198
0.90217578
0.22566824
-0.49600607
0.62540358
0.19563290
-0.84608537
-1.11366522
-1.26971793
0.02760589
-0.66038227
0.34235451
1.41713607
-0.87964314
0.94245976
0.14828680
0.22905792
-0.79723215
-0.93469948
-1.93443441
0.45506030
0.38544628
0.10856244
0.31918117
-0.22804290
0.74778396
0.07613368
-0.36252612
2.77275062
0.04857166
-0.03035499
0.16639456
-0.06214835
-1.07500720
-1.24671578
-0.31401166
-0.27180809
-0.34650236
0.15582043
1.29816341
0.14093347
-0.98549265
-0.29293332
0.12274714
-0.87177229
-1.43649530
-0.26258060
1.08450103
1.16011178
2.24001622
-2.57897496
-1.78941977
1.00024962
-0.62589848
0.15519272
-1.17222381
-0.74645156
-0.73330021
-0.94805717
-1.03536832
0.16058452
-0.20733371
0.18730316
0.69048601
0.02025625
0.44239542
0.02871044
-0.17900227
-0.67238951
1.18506277
1.89932168
0.41115296
0.14447966
-1.47824013
1.53421962
0.02857927
-0.02722296
0.25356090
1.15657759
1.29247260
1.06243384
0.12296516
-1.55337918
1.02147436
-1.84436524
-0.01153501
-0.88387513
0.00160395
-0.84721178
0.91149104
-0.08237986
-2.18471289
-0.22503787
0.40968931
1.18901181
0.29277688
0.61957812
1.45184159
0.24417515
0.17081462
1.14870894
0.27744693
-1.82873821
-0.31430972
-1.26487446
3.05783439
0.55491799
-0.91329098
-1.09204257
0.24296089
-0.84790438
-0.05681522
0.25997970
0.02777483
0.21530952
1.27324212
-0.54516721
-2.20717382
0.34243780
-1.59194481
-1.33368993
0.55474764
1.37425733
1.11937022
2.40414310
-0.24915019
1.12494111
0.05980006
-0.67715859
-0.39920899
1.42654610
1.31909287
-0.87384528
0.81104422
0.86706114
0.00119256
-0.15116848
-0.84692305
1.03851843
0.09744178
2.35413623
0.97766984
0.80598170
0.55906904
-1.32320404
-0.75328135
0.13134108
0.63472301
-0.63227046
1.23604393
-0.51009411
-0.71229076
-0.70549601
1.74995935
-0.13792168
-1.19505239
-0.22209731
0.41483593
0.90115172
-0.26327315
-1.65264773
-1.44145763
1.14569724
0.63202298
1.69840717
-2.21574259
0.20713088
2.41078043
-2.27041721
-0.40387845
-1.19811511
-0.62503070
0.12929563
-1.06059623
1.28207266
-0.94077480
0.06711619
-0.66808593
-0.39278388
0.19499959
-1.58211112
-0.03058504
1.89828217
1.25071621
0.70238298
-1.01718175
-2.07362819
0.35381207
1.85697675
1.08576560
1.58409452
-0.00738960
2.05857849
-2.04559851
0.29603922
-0.75444299
-0.33445928
-0.75210017
0.15590665
-0.05107662
-0.84423524
-1.26598895
-0.73687947
-1.46230161
-0.03362514
-0.50631166
-0.03716209
-0.55696589
0.78107899
-0.50354373
-0.76908320
-0.56109911
1.81175756
0.04472049
-0.00182797
1.17541385
1.12937784
1.29268348
0.24209440
1.43141842
-1.01914001
0.04295435
-0.53056562
0.86136115
-0.55571562
-0.31265053
-1.06355786
-0.30578759
0.26926354
1.06930029
-1.53198230
0.50977188
0.56018710
0.88052559
-0.05909908
0.77841192
0.14937249
0.23000669
-0.41261989
-1.67189407
1.32676673
0.96808314
-1.20736265
1.05693138
-0.28785387
-1.42846131
-0.63660115
-2.03866363
-0.68500471
-0.00284533
-1.47568250
0.47079942
-0.40386385
-0.01740828
-0.27389261
-0.20285833
0.40245128
-0.57743984
0.90634984
0.41589642
0.86283100
1.14148176
1.73143482
-0.88065147
-0.15305494
0.47484422
-1.74400711
0.43394434
0.04036829
-0.89663053
0.17403588
0.97359872
-1.14618611
-0.65550995
-0.59887475
0.50600094
1.69231701
-0.81956649
-0.81331784
0.39382070
2.06154609
0.50465971
-0.69565767
1.75204396
0.56510025
0.59285855
-0.61308986
1.86705136
-1.21877456
0.75474685
-0.03902629
-0.30303872
-0.38854411
2.04108071
-0.32646886
-0.20311777
-1.97847104
-1.41419542
-1.22427642
1.04370165
0.58518600
0.57799590
0.11928871
-1.63916361
0.25419891
0.02066342
2.39638066
0.12064145
-0.97371501
0.94417191
0.64785194
-0.11300916
-0.41288328
-0.43795335
0.96421301
0.16558936
-0.65010726
-0.28656074
1.58670986
0.61253619
0.22745624
1.53813863
0.04594437
-0.57441914
0.10981857
1.77318192
0.12498666
-1.23244202
0.88629133
-1.93044722
0.94992769
0.43632582
-0.83791959
-0.68937701
2.01126623
-1.91978240
-1.07693672
0.65236926
1.88713920
-1.04390311
-0.76492578
-0.17742723
0.90847439
-1.35080922
-1.34393680
-0.21427576
1.24157286
-0.28686634
2.42370081
0.05059208
0.53297526
0.74501538
1.02328992
-0.54494625
0.56622988
1.88096547
1.62216771
2.45443535
0.38094461
0.10680199
0.03601268
0.09573767
0.43457210
1.19757140
0.47750312
0.01212414
-0.76376843
-0.56791949
1.69827592
-1.41610610
-1.34506631
0.36624530
-0.90785503
0.37773970
-0.93875229
-1.05448115
-0.29013246
0.03828265
1.40002716
0.08180729
-1.04057074
0.38470960
1.51444483
-2.27811193
-0.85871792
0.93896300
-0.06855118
0.54670423
0.28279796
0.41456077
1.25909007
-0.26188490
0.11229389
-0.47339398
-0.23380278
0.21107884
0.86550313
-0.12485565
0.05185646
0.69043070
0.41380829
0.14919810
-0.94339955
-0.22169508
1.28012443
0.06697129
0.04227323
0.40923488
0.70833516
0.42232800
0.58241272
-1.55616033
-0.62650752
1.65093470
-1.12431514
0.64441407
0.84282553
1.05907524
-0.21649544
-0.99540496
1.41113222
0.68377733
0.57926667
0.09805476
-1.18531930
0.02516882
-0.94080377
2.34657192
0.69218546
1.96045923
0.62483162
0.25055355
-1.42998779
1.48300934
0.99349701
1.09003234
-1.44427299
-0.31995243
-0.51744777
-0.44650716
1.02742445
-0.23768373
0.14777920
1.83404994
1.17018080
1.35453057
0.18871632
-0.63304228
0.22569688
-1.00419593
-0.23370081
-0.33190343
0.89320266
0.86300898
-0.24988373
0.21734962
1.23241723
1.70981967
-0.00902881
-0.04883879
-0.39669323
0.57417369
2.22163510
-0.62597370
0.73781139
-0.82044119
-0.24381231
-0.52963293
1.10320854
0.95898706
0.83550352
-1.50964344
-1.48922491
-1.21724367
0.11029075
-0.39978224
-1.14495099
0.77088159
0.12449516
-0.31497830
-2.06205130
-1.96323681
-0.89579594
1.45713282
-1.29167080
-0.31910509
0.73218870
1.63621497
-0.43897718
0.63031346
1.23757768
1.40878260
0.16465276
1.07511103
1.02895093
-1.07765985
-1.50443482
-0.20578912
-0.59160715
0.18283166
-0.52927923
1.24898934
0.55862629
0.42065451
0.38042337
-2.32615829
2.20777988
-1.60764790
-0.58729464
-1.77944803
0.12259174
0.74518204
0.02378027
0.03470074
0.06373418
0.58897793
0.48538572
1.17543554
-1.35047007
1.40381444
0.67530304
-0.54710364
-0.54567498
-1.25232005
-0.87346935
-0.72871256
-0.61982054
-1.22162557
-0.59247142
-0.05693029
-1.15997386
-0.98232323
-0.00154121
0.20686701
-1.79482210
0.87199545
0.39111647
-0.45041892
1.09591937
0.70023179
-2.81118226
1.95039439
-1.38409412
0.36697236
-2.36156249
-0.10338376
-0.06282491
-0.14498755
-1.07637870
0.06342807
-0.79016578
-0.37014022
-0.15532501
0.29377508
0.01260874
0.01109320
0.08695816
-1.28935063
0.30103302
-0.54766101
1.16903317
0.18560731
-0.42753178
1.28314853
-0.45260003
0.72203958
-1.35626280
1.27933252
-0.61543453
-1.17694056
1.13094032
-0.92179644
-0.07066029
1.34450722
0.19249064
0.58502018
0.25879645
-0.68155348
0.91415685
2.15523696
-1.18962193
-0.01317434
-0.65608883
0.11200668
-0.81606263
0.36368021
-0.73154169
-0.06239795
-0.09092662
-0.09127459
-0.80537075
0.02337515
-1.21952879
-0.67253125
0.99812227
-0.31976339
-1.72179794
0.40178701
2.46761465
-0.60663855
-0.63205421
0.70390016
0.14825296
-0.43903530
-0.36648315
-0.83523661
0.56529766
-0.01756350
0.84315807
1.20885766
-0.71651304
-0.13379301
-0.24974766
-0.17788173
-0.06198092
0.09884500
0.02576448
-1.19406724
-0.88031483
0.96733016
-0.81985009
-1.02808225
1.30773687
0.21921521
1.11704457
-1.46877551
1.69979763
-0.27129263
-0.61631846
-1.30524147
0.01599575
0.23741874
-0.38046718
1.00985634
-0.94896525
-0.99389410
0.16746676
-1.34831977
1.22876966
-1.69261372
2.86664844
0.52205235
-0.81584656
-0.88527888
0.49707243
-1.19605279
-1.23536479
-1.09995389
1.09763598
1.54413342
-0.26243719
0.39345333
0.84244132
0.50945246
-1.14186025
0.02896135
-0.44909480
-0.14427599
-0.32041854
-2.47251558
-0.77645552
0.07256773
0.26568174
0.05686831
-2.09024572
-1.12978661
1.31259739
-1.09450209
-2.11754489
1.24290538
-0.96302563
0.59225911
-0.08076878
0.17727923
-1.77326763
0.20463145
-0.66253668
0.32433599
-0.12589973
0.58647233
-0.84543037
-0.89664805
1.22266793
0.56240910
0.75227076
-0.18729690
-0.37909994
1.45226383
-1.39630151
0.09757756
0.58747005
-0.01862812
2.42439079
0.87755322
2.45650434
-1.17945099
-0.67492580
-2.01043057
0.52009308
1.39467132
0.13895160
1.83053231
-0.59037042
-1.26785707
1.74199557
-0.18426447
-1.75346887
2.45155787
-0.16315269
0.11666781
-1.39915526
-0.45897901
1.19699597
-1.94339228
0.57105738
-0.33571878
0.73809230
-0.43696171
-0.09057601
0.13849299
-0.42067844
-0.48567083
1.23475659
0.87106407
-0.57265347
1.42172694
0.78705186
-0.90094239
0.14795080
0.53071433
-0.26952899
1.05344331
0.23946843
-0.65395576
0.86431295
2.48903298
0.11824907
0.17179656
-0.71038967
0.76247245
-0.28741255
-0.70991671
0.99356109
0.44779953
-0.21450715
0.33660224
0.38801491
0.26668757
0.10457318
0.67330426
-1.03601468
1.14726901
-0.09698413
0.87812954
0.22031796
-0.46427223
-0.31867671
-0.79438871
-1.71778667
-1.18006063
0.33823532
1.63517475
-0.58704972
0.39731047
0.38465250
-1.11958301
-2.04302835
1.67292929
-0.30585563
-0.71169633
-0.72849566
-0.55510437
0.52959633
0.07312253
0.14217018
-0.35939491
0.15159091
3.01420665
0.33430570
0.92383236
-0.36019501
-1.62331665
0.30143282
-1.11082447
1.38592970
-0.28818971
1.42823243
-0.03730320
0.11583001
0.03080735
1.59825790
-1.09844244
-0.01079441
-0.20303759
-0.72005719
0.49658185
1.64451492
0.47862506
0.59790283
1.05257380
0.09092517
-1.15538323
0.22066014
-0.54780978
0.58798188
1.79172599
1.05465543
-1.06683815
-0.38939801
-1.18297613
0.11928567
-0.16747250
0.75631618
0.55481029
-0.87900823
1.88229775
0.85129720
2.96070170
0.43297791
-0.70168144
2.11484194
-1.34125638
-0.69337928
-1.69904578
0.49644038
0.02129482
-0.98687965
0.58394742
0.48541406
1.90119588
-1.39068723
-0.32759494
0.25587830
-0.24788558
0.73929250
-0.51070261
-0.43982235
1.80432594
-0.10466696
0.99290305
1.47183156
0.81613040
0.01729086
-0.62489939
1.65535498
0.76825213
2.20524716
0.14041978
-0.36699173
1.28892076
-0.34563431
0.55696970
0.03395111
1.66171002
-0.35238615
1.04813838
-0.08279222
1.18611205
2.11387515
-1.79462004
1.41536713
0.11629846
0.91803145
-0.37934193
-0.84976059
0.03308967
0.96975803
-0.37997934
0.00370005
-2.51128602
-0.15429541
-0.07188359
-0.71793300
0.30314025
1.69324768
-0.80039185
-0.91730124
1.00898111
-0.62034929
1.84794319
-0.16596134
0.23644136
0.03295873
-0.37989119
-0.98538452
0.36907801
1.03768587
0.56783986
-0.33769670
-0.13175625
-0.43266881
0.91720223
-0.59855062
-0.74622285
0.54896915
-1.52381456
0.30429831
2.49471474
1.18842208
-1.32221198
0.91347778
-1.70269334
-1.46099484
-0.16005762
0.70414889
1.44173634
-0.67563272
-1.39298868
-1.34423685
0.40379727
0.25304016
-0.12418371
-1.01855946
-1.23737860
-0.99882013
1.23870361
-1.55445004
0.52697641
-1.23258567
-1.33787060
1.89603221
2.22364092
0.11400712
1.56186640
-1.48943508
-0.15320975
0.46974871
-2.56692266
0.79654121
-0.24514998
-0.36711228
-0.29610816
-1.26974440
-0.07413156
0.01758886
-0.39639053
-0.09249224
0.83690131
0.94342554
1.58548188
0.11921369
-0.74670208
1.63360202
-0.70088226
-1.04952753
0.29309222
0.89663565
1.73283255
-0.01028348
0.74299484
1.20569730
-0.52903897
1.77019644
-0.33776218
0.67432529
0.82904708
-1.56633246
-0.11610241
-0.23165478
1.24837065
1.72676182
1.55229712
0.15052392
0.18431127
-1.40734422
-1.19792986
-1.02895510
-1.43389463
2.18636394
0.16914636
0.61284226
1.21436894
0.16540867
0.47294572
-0.05773332
0.49502879
0.46743497
0.61871380
0.23713714
2.35579777
0.25072801
-0.32714170
-1.06901670
-0.68074352
0.59423506
0.50759184
-2.77702808
1.08398807
-0.12075092
-0.38106745
0.83525413
0.14932853
-1.03366435
-0.44593528
0.13387448
0.68168557
-0.72190744
0.87363505
-0.14979434
-0.00337477
-0.48105267
-2.26151824
-1.18913400
2.66220760
1.08262610
-0.08183298
0.04302675
0.81581974
-0.77046633
-0.03405074
-0.87379593
0.18708493
-0.77443624
1.34508061
-1.52988529
-0.06656640
-1.03437555
-0.96433872
-0.83203816
1.28653979
-0.42581329
0.59266740
0.82813144
0.12016043
-1.75115049
1.40706921
0.95441169
1.56203103
-3.20788407
0.68439025
-0.16419798
-1.26163101
-0.65140224
-0.02342261
-0.23375580
1.75614178
0.76717168
0.12173747
-0.83282328
2.42627048
0.60908777
-0.04500792
1.57879508
-1.59699559
0.50345695
1.55549526
0.55122435
-1.12923098
-0.88563234
0.47275749
0.62905681
1.21890712
-2.36550736
-2.45473838
1.20804095
0.80631971
1.06834531
-0.09699792
0.93516809
-0.03909079
-0.83984697
-1.21002138
-0.35750306
1.05370665
-0.15520406
1.61187804
-0.39938232
-2.01263547
2.04170942
0.10738642
0.21042447
0.68829739
0.01569783
0.95689756
-2.00984883
-1.33521867
0.88026232
1.15935850
-1.10829115
0.41930202
-2.04431486
0.14421926
0.87879348
-1.87035251
-0.12697861
0.46478310
-0.52276099
0.31706166
0.25688869
-0.05790377
2.05665946
-0.30885339
-0.91274095
-0.05242003
0.35036233
0.46559140
-1.91148806
0.64632499
-0.24820812
-0.64923292
-0.51842952
1.72119987
0.66292644
-0.16128072
-0.80715907
-0.34056443
-3.80184054
0.11637343
-0.50643235
0.72463435
-0.29349887
1.10393500
1.45157242
-0.61399645
-1.58967197
-0.07079844
-0.09961965
0.84297222
-0.87605786
-1.16193247
0.16451600
-0.25734505
-0.48569435
0.73019093
-0.09335022
-1.91909516
-1.26695800
0.57380611
0.43615687
0.06554656
-0.42681760
0.90971971
-2.40646195
-1.29929495
-1.68803465
0.95093197
-0.12758486
-0.72793901
-0.18931092
0.50330502
-0.48620361
-0.53299391
-1.15444434
-1.25559473
-2.27223802
-0.50624764
1.26479506
1.03536820
-0.27685034
0.79996639
-0.03808894
1.07344556
0.21331260
0.30252221
-1.58602273
-1.00922918
-0.53230536
-1.56645906
-1.00517023
-0.32560459
2.55116057
1.29910672
1.13071299
-1.82617152
0.51175535
0.28812289
-1.32557666
0.12350664
-0.08753411
-0.49649468
0.25048146
-0.44707125
-0.38551924
-0.30536988
-1.18141520
0.56383973
0.93418509
0.87523150
-0.09759042
0.01185156
0.21839130
0.91726863
-1.15360427
1.36812043
-1.32642245
0.57469672
2.11085773
0.62026697
-1.01344514
0.16510069
-1.10462713
0.30992997
1.16009068
0.55323666
0.49638477
0.39925820
0.54386300
-2.58134341
0.51804584
1.20272028
-0.14078180
-0.29124659
-0.89350158
1.36297107
1.18256366
0.36127356
-0.40331939
-0.10953037
0.44114095
-0.93178821
-2.46824694
-0.20401867
-1.39576030
-0.87765539
0.12534477
0.05447569
0.08300339
0.37306565
0.19728330
1.83021462
1.52783298
0.53401560
-0.63818759
-1.14360440
-0.41647458
0.81072122
0.08092417
-0.30024055
-1.99479878
-2.38550878
-0.32961512
1.56559765
-1.19918668
0.60127842
0.72819930
-0.92249560
-0.20422578
-0.01116171
0.82300216
-0.72785556
0.11917444
1.00952327
-0.23248607
-1.16446209
-0.90567881
0.01593203
0.04345567
-0.37402561
0.18147974
-2.54563165
-0.86097044
-0.38357049
0.91779453
-0.58796442
-0.20054930
-1.10748839
-0.39181161
0.32621297
1.61405361
-0.15038012
-0.39998204
-0.30345070
-0.58828789
-0.83768541
0.23847522
0.41278553
-1.09654403
0.37544021
0.42892343
0.59235322
-0.80979985
1.53670609
-0.79555452
-1.37422514
-1.30401123
0.25114849
1.38512230
0.53764933
-0.87355953
0.90628874
-0.11302286
0.38485932
-0.51996350
0.73582429
0.09948381
-0.63338447
0.12287835
0.43397835
-0.11493082
-0.83686799
-0.34690684
-1.78168452
-0.32439849
0.94678175
-0.09656445
0.73489416
0.94135487
0.04269148
-2.00021386
-1.04923844
-0.56408381
-0.22685812
-0.76922619
0.71416432
0.43104827
0.16279942
-1.21063590
0.53396833
1.83192992
1.40375197
1.09486628
0.94120234
1.24704957
2.13651347
-2.00634933
-0.69990599
-2.16646075
1.02547729
-2.07110715
-0.34373158
0.06580067
-1.67797840
-0.36482808
0.88938528
0.57807606
-0.08179387
1.04402256
1.09351110
-0.26585376
0.57229078
-0.64803559
-0.23211415
-0.77473748
0.85431027
-1.46423519
0.22102344
0.11614718
1.17440605
-0.37364671
0.14620686
0.18546253
-1.34739327
-0.08719030
2.25237489
-1.51528633
0.89122504
1.01871443
1.70314920
-1.45132363
-0.66340590
0.00696962
-0.00707332
2.24652147
-1.40552115
-2.32189035
-0.41578674
-1.50625944
-2.89302969
-2.18673992
-0.78408188
0.13407525
-1.05813289
0.82791054
-0.29635251
-0.82865059
0.99101198
-1.31224525
-1.24616766
1.58469844
-0.01657832
1.22399807
-0.57937783
0.05608667
-0.02463632
1.22849965
0.30273598
1.31740904
-0.36886355
-0.00932226
-1.36356688
-0.40680766
1.97441375
0.01464319
-1.27435386
0.49345112
-0.23128568
0.17635138
-0.30958244
2.76095462
-0.54916406
-1.49708843
0.44367582
-1.71970272
0.13569354
-1.64414167
0.86748010
-0.63758904
0.24876022
1.50501633
-2.44874620
0.81228042
0.02353371
-0.33926165
0.16306552
2.26175404
-0.89196938
-1.06088579
-0.31310618
-0.34329692
-1.12358558
1.26727974
0.39756927
-0.09986348
0.07328609
1.58317280
-0.78994626
0.90125299
-0.20934162
-0.51695853
-0.33667803
-0.30665752
-1.86712992
-0.82923025
-0.74415547
2.50965667
0.75277221
-2.08619785
0.45477688
0.37964192
2.16841626
0.06662568
0.08485886
-0.41099316
-0.69017142
-1.55425119
-0.92912728
-0.22344762
1.12027562
-1.98006272
-0.52454352
0.80385298
-1.00844896
1.00223875
1.89198673
0.77248967
-0.66264707
2.55190754
-0.24084148
1.99964273
0.28191677
-0.74752128
0.82917041
-0.54087812
0.79923999
0.73331201
0.47263989
-0.47426355
1.84276211
1.00645888
1.74950469
-0.54305589
0.02820973
-2.07549763
0.43100065
0.26771247
0.37109968
1.48408175
-2.04326248
0.01367044
-0.77431631
0.33842638
-0.25343713
-0.23558684
0.43495119
-0.22875191
0.01702242
0.05447742
0.19323145
0.20471336
-0.40687066
-1.93627822
-0.08339050
-2.66093707
0.84327292
-0.72617584
1.11338425
-0.85826755
1.05621397
-0.95551747
-0.20070784
0.39659613
-0.49810061
1.45259583
0.94098628
0.30652285
-0.89239955
1.30611897
-0.80292237
-1.35446620
-1.12689781
-0.58652347
0.04717689
-1.46104968
1.90216923
-0.79017544
-2.03488183
-0.55228907
1.54299533
-0.68336856
0.30977213
0.35175982
0.14749277
-0.50802213
0.32374322
-0.33239567
1.23240709
0.86115801
0.00579512
0.27719587
0.25712833
0.38420853
-1.15679920
0.74159449
-0.31977138
-0.27958229
-0.08659982
0.58648002
-2.07854390
0.74213666
0.05728450
1.82243323
2.15928292
0.77704644
0.94036829
-1.41701388
1.14353693
0.33614779
-0.09944823
-0.58370095
0.11838617
-0.16525251
-0.34217009
0.53209805
-0.09198955
-0.32447100
0.28546429
-0.84890127
-1.40768826
0.00972802
1.10656381
-1.61224031
-1.96917582
0.44245014
-2.02902436
-1.07916689
-1.57902563
-0.65730262
0.37676394
-1.17043090
-0.03663596
1.52580929
1.33798432
0.13302606
0.91360217
0.74481320
-1.01806724
-2.00735474
1.00490320
-0.29032147
0.70280731
0.44673392
0.47009289
-1.12356150
0.96536613
-1.13307667
-0.36461762
-1.73656905
-1.31147587
-1.41116250
0.70016116
-0.55950159
1.87285233
0.03060640
1.27467930
-0.48381850
0.13728186
-0.56698608
0.68417108
-0.23150104
-0.47341663
-1.23365200
-1.31295478
-0.47495314
-1.12485981
0.05935612
1.76609707
-1.09123242
1.48063970
0.62696183
0.49695626
-0.82622916
0.93945616
-0.88390118
-0.17117894
-0.74431354
-0.06758649
0.11828832
0.79370552
-1.41161120
1.08254838
0.35071188
-1.75587606
0.07390089
0.46962768
-1.15624356
-0.43214676
1.92334187
-0.95730776
1.25740981
-0.01839281
0.17916943
-0.69562781
-0.70665842
0.59670824
-0.22460973
1.00433457
0.12822643
0.95208347
-1.32581651
1.23446989
1.49178445
-1.32793283
0.21037357
0.86813617
0.85268772
1.82367158
-0.67829049
-1.14055645
0.61465847
-0.91768825
1.37546897
1.06015134
1.30528188
-0.05504776
-1.94625437
1.74759376
-0.46684593
-2.78379059
-0.33789778
1.45599663
-0.04933277
0.60817206
-1.18438780
-0.15659158
1.21162498
0.75186068
-0.54304326
-2.71264696
0.77597970
0.87457848
0.48645014
-1.59293914
0.33923897
0.68321681
-0.52284867
-0.84293520
-0.41411024
0.81825149
-1.06867230
-0.69552875
-0.24520347
-0.95991600
-0.29185244
-0.02811362
0.37697914
-0.11129638
-1.63691509
-0.21839868
-0.63880020
0.55741525
-0.52621555
0.09836122
-1.37293911
-1.72377384
0.08558659
0.57951224
-0.79321599
0.68455148
1.50043440
-1.38847995
-0.22380367
0.88283938
1.67149162
-0.94861460
0.28742951
-0.03068082
-1.54460192
0.89689982
0.00956549
-0.33794343
-0.55914611
2.29944563
0.92660236
1.25699127
-0.00767904
-0.52217817
-0.53795081
-0.86756402
-0.15862298
0.44627631
0.59356356
-1.75984466
1.20606661
-0.45934689
0.81321079
-1.66446424
0.00950676
0.87346667
0.42900658
1.09887052
-0.79024196
-0.65577281
-1.12967908
-0.47525948
0.75763416
-0.10035498
-0.31380293
-0.47608232
0.88412362
-0.25154978
1.45538664
-0.63963956
0.96416128
0.70962399
0.69448328
-0.76276749
0.93495339
0.71071094
-1.60248280
0.09847841
0.14405483
0.24369518
-0.20797728
1.26127529
0.93474007
-0.78496039
-0.41660172
-0.72762108
-0.10822851
1.81911063
-0.25737864
0.98384827
-1.06832945
1.10285473
0.43274060
1.24138570
-1.25965691
-1.04064560
2.27477360
-0.58414036
-1.56900918
-0.67869365
0.98292351
-0.03346188
0.80692661
0.22915965
0.11895061
-1.41919672
1.71854424
-0.47076628
-1.10994685
2.12576628
-1.11935902
0.39138755
1.58516943
0.78315240
1.65492487
1.00251830
-0.58464849
-0.47063503
1.60691452
1.20122743
0.49937910
1.20796549
-0.46678379
-0.47687081
0.69279885
-1.83985817
0.07127317
-1.05051911
-1.18856013
2.27937031
0.27792776
0.49254528
0.82615691
1.52113426
-1.08953822
-1.25014699
-0.11469262
-1.91007817
-0.31551385
-0.05143379
-0.12866762
1.14744604
2.48493814
-0.65775508
-1.45888960
-0.01692391
0.11079055
-1.73717344
-1.18979287
0.19497277
0.10515751
-0.01187568
-0.23251131
-0.49444032
0.99393129
0.06766560
-0.25282878
0.00527292
0.13620225
-1.27373672
1.07098019
-0.92865515
0.24289455
-0.91263670
0.92325175
-1.08310354
0.24942556
0.05521506
-1.00224733
0.62063116
1.07062459
-0.33403414
1.19711387
-0.70708442
0.83321762
0.90592122
-1.23189914
-1.72709620
0.72016406
-0.53242803
-0.28137177
-1.51845634
-1.32281542
-0.01172666
-0.19121592
-0.54493439
0.08554127
0.64541245
-1.69465280
2.27234006
0.41804239
0.34793350
0.47485691
-0.10401241
0.29100221
2.27933621
-0.46487620
0.82254368
-1.40190732
-2.92690635
0.02502375
-0.66442323
1.13889074
0.95048308
0.21706694
-0.53939050
0.30693436
0.05584004
-1.19207454
0.97336221
-0.05139159
-1.37420702
-0.81029457
1.86469805
1.31929541
0.03211638
-0.66587818
-0.19216111
-1.51512337
-0.58737636
0.55616182
1.36780417
-0.51238030
1.76996398
0.32977051
-0.42167738
-0.80709362
-0.24373119
-2.13360810
-0.22925289
-0.35473630
0.64232284
1.38506472
-0.11793779
-0.38181251
-0.55494177
0.55630225
-0.19804989
0.72527605
0.80489075
-0.28664255
-1.49273324
-0.15317984
0.21182363
-0.00377358
-0.56980306
0.81247115
0.70908630
-0.72899950
-1.69945812
-1.21813655
1.29792035
0.39085582
-0.55611622
1.98638439
0.30346307
-1.30481267
-0.78887492
0.50093567
1.08663785
0.37482589
-0.00436193
-0.89365870
0.67683583
0.11659580
0.14982106
-0.42388457
1.43612945
-0.03831551
0.57894754
-0.17701496
-0.41350746
-0.04588830
-0.49485052
-1.25003386
-1.07818699
0.46720681
-0.42009693
-0.08937991
-0.17896058
-0.09252517
-1.98573887
1.81939280
0.35796940
1.39902997
-0.29551846
2.71003318
0.58295685
-0.66003072
-0.14069757
-0.09610766
0.34732088
0.86757654
1.63886666
-1.30792773
-0.14689505
-0.22804520
-1.16024232
-0.07940972
0.83660185
-2.19573879
2.21959591
-1.28638589
-0.45174399
-1.48004174
-1.17113030
-1.64748013
-0.98843580
0.98961729
-0.06867034
0.77922446
-2.19101954
1.18138325
0.23616418
-0.48290798
-1.09755933
1.65567613
0.12876934
1.87378204
-0.23653758
-0.18528821
1.29654956
1.03568876
0.58703059
-1.66550326
0.02573811
-1.10219824
-1.34998369
0.34563720
1.69786310
1.00428092
0.47258791
-2.02104044
-1.77794945
-0.40529475
-0.34427184
0.06676624
1.30445063
0.35286382
-0.21952152
-0.01166061
-1.16177022
-1.10864246
0.17493279
-2.27623463
0.62835997
1.96615148
-0.60026741
-2.30893183
-0.41232696
1.39337611
-0.36005068
0.18014449
1.48351800
0.30386588
0.35337088
-0.44518843
-0.09864570
1.49139571
1.11999512
0.39066616
0.89137864
0.16731548
-1.74766684
-0.24072744
-0.18922731
0.86203533
-0.50318408
-0.09088215
-0.14459558
0.73674989
0.30260980
0.93008077
1.30859244
-0.96493459
-0.24482015
-0.74650586
-0.13501668
2.35311675
0.06295315
-1.04230344
-0.32594019
-0.43586335
0.36729062
0.54832685
1.64083397
1.29656458
-0.70115054
0.84785694
-0.82422036
-1.43190241
-0.37212223
0.61652267
-0.92306018
1.92889166
-1.80524945
2.06709814
0.31464490
0.13954774
-0.14488612
1.38218546
0.03902479
-0.85770655
-0.83792424
0.28088883
-0.41640267
1.38969409
-0.41967332
0.30862719
-0.13263822
-0.24346580
1.30078638
-0.90803874
0.59032887
-1.56851983
-0.09910183
1.03485787
0.88694030
0.00811570
-0.06299347
-0.06333564
-0.86091352
-1.23403263
-0.13597292
1.86328268
1.30676401
-0.47525153
1.30019522
-0.24773122
-1.39821625
-0.61721122
-0.68708187
-0.56663990
0.49940482
0.26084775
-0.80283087
-0.25439212
1.02673757
1.77828348
-0.08931418
1.37890637
-1.82088006
-0.29927909
-0.72661430
0.27470595
1.19619703
1.83837032
-0.93240023
0.98008943
1.80789518
0.91262037
-1.24014139
-1.53384137
0.06201343
-0.55436176
-0.00184666
-0.38255033
-0.20571753
0.97491515
0.69744706
0.61158353
1.26026738
1.91264331
-0.85233706
-1.59022129
-1.21290648
-0.11693062
-0.85004950
-1.25713181
-0.16103636
0.01491911
0.96726525
1.24677551
-0.49922842
0.36426646
1.65967190
0.02257577
-0.28216439
0.63699144
-0.57104254
0.37821195
-0.55338669
-0.95565760
0.37068519
1.75391269
-1.25986612
-1.58165610
-0.26768824
-1.57555795
-0.91918260
-1.58814490
-0.92045581
0.84486783
0.48699179
-0.64702559
-0.86899441
0.03312108
-1.10554945
-1.66725826
-0.64813173
0.16186112
-0.82189775
0.60215718
1.05754387
0.54708129
-1.85735118
-0.47230798
-1.21147418
2.16689253
-0.23405844
-0.87144083
0.08120327
-0.83850521
1.27289259
0.21224411
1.07692492
0.20129831
-0.33528227
-0.59010112
0.20360506
-1.93972600
0.00972885
0.13700946
-0.66331095
-1.76387203
1.27660477
-1.70802283
-1.32064164
-0.93511832
-0.55157310
0.40103132
-0.50308084
0.43200564
-0.69462860
-0.27436277
0.62978423
1.27170038
-1.56194329
0.89029503
0.81862253
1.64858639
0.36787975
0.56331170
0.83672750
-0.38397679
-1.88282430
0.55819225
0.18398167
-3.34159446
-1.61238456
0.35815364
0.05681585
0.58796805
-0.36706531
1.79575181
-2.13070226
0.29179713
1.00669158
0.62398422
0.21644068
-0.06339356
0.26411685
-2.24887967
0.42657462
-1.21124744
1.56865370
0.00098445
0.20488928
1.45995474
-0.34965810
-2.16306758
0.04565474
-1.31933975
-1.27045381
-1.28057241
-0.10650761
0.26816267
0.60627019
-0.21728274
-0.23811586
-1.17958188
0.57797307
0.53250331
0.54456967
0.25480133
-0.31607217
0.29961994
-0.89268148
-0.01138597
-0.69007820
1.74249780
1.94645190
0.50397861
-0.71320087
-0.69842982
0.36773923
-0.97351801
-1.35304534
-0.01083883
-0.13901335
-0.29992676
-1.03219283
-1.47510874
-1.53305161
1.69236660
1.31347382
-0.01187511
-2.90001154
-0.16621700
0.67837393
0.26066294
-1.40218449
-0.50604701
-0.82778728
-0.01924743
-0.81215000
-1.99480641
0.87171024
-1.07054675
-0.48524070
-2.65983224
-0.54608458
0.00565062
-1.13989699
0.15627378
0.62251860
1.60696959
-1.32215142
-0.74084479
-0.24351420
-0.67513335
0.37038177
1.16443574
1.22371507
-0.36294845
-1.97069454
-0.06613584
1.91840041
0.35284472
0.26431289
-0.51229632
0.51770401
0.56586730
1.27776277
-0.43849263
1.20851088
0.85637391
1.96584570
-1.35825455
1.40365684
0.98399562
1.18939877
-0.52006388
-0.04844379
-0.94844306
0.69087338
0.11705761
-0.70751905
-0.14173257
-0.15006049
-0.40873855
-0.43111056
0.14974739
-0.73873395
0.48950890
-0.03261442
-0.10952834
0.01082405
-0.28302872
1.80860090
-1.12337029
-1.55760944
-1.17401600
2.10134435
0.63975966
-0.39055490
1.23734558
-1.89450514
-1.05981421
0.49290916
0.08313011
-0.18016261
0.72222525
-2.35830951
1.32401669
0.58874327
-0.36875388
-0.68501490
2.24991584
0.01857129
-1.38882673
-0.24736561
0.06362916
0.74522811
2.09095860
0.25141570
-1.02517629
-1.23766756
-0.20964712
-2.15863967
2.00127077
0.42238861
-0.91824841
-0.68669331
-1.23607790
-0.25348312
-0.99157184
0.99521250
1.43220866
2.36571264
-2.10383534
1.16550410
0.63886726
0.71586764
0.07078455
-0.09796962
1.38920498
-1.46770465
0.74828780
0.64844155
-0.31561723
0.58968550
-1.82453930
-1.81765151
0.25593179
0.11824372
0.95358759
0.07768565
1.02099979
0.25131845
1.79648209
0.42518643
0.63981295
-1.94618165
-0.58720464
-0.25413203
0.50532860
0.92559028
-1.10831904
-0.50232029
-1.88853920
-1.03935051
-1.29732823
-2.10286093
0.83869994
-0.75154972
1.65752137
-0.03884783
-0.48813936
0.28089336
0.24331905
1.80439854
0.16615489
0.13399677
1.92398787
-1.19545054
0.60305274
-0.13874093
0.72317582
0.01173922
1.29143953
0.15996379
1.01924932
-0.00123687
-0.28164107
0.88282847
-0.01116969
-0.50394970
0.20449203
-0.03641972
-0.49397397
2.12630653
-1.28723562
-0.53641790
-1.27124643
2.11177921
1.41408825
0.73806423
-0.17385620
-0.10536212
1.00321484
-0.38968128
-0.70485282
-0.96496403
0.03600486
0.21891609
0.28992423
-0.88380659
0.93508118
0.84789616
-0.99355942
-0.83338350
-0.39732152
1.24850237
-0.38335109
-0.56961435
0.45665178
-0.49129382
0.03495962
-0.18650714
-0.41677386
-0.32382572
0.81707102
1.20495892
-1.40285563
-0.71312487
-1.21679735
0.44943124
0.25724477
-0.95774007
-1.97104776
-0.02557962
-1.12303948
0.19238131
-1.05742800
0.14061436
-0.74198443
0.45417950
0.44286448
-0.49078971
0.05969867
-0.31598610
-0.52268612
-0.21871006
-0.35391822
-0.00557225
-1.54168379
1.12781382
-0.49793607
1.43786466
0.47388124
0.64994979
1.91605675
0.04432179
0.32702804
0.54885215
-1.08899117
0.97919077
0.86045140
0.56858402
-1.40843034
0.44727182
1.51763344
1.76002884
-0.40379417
0.19577435
-0.59812647
-0.80121523
-0.80071670
0.28746483
0.81476289
0.12278314
0.34243301
0.32919532
1.15637875
-0.96646976
1.95849895
0.18882538
0.62973219
-0.56278223
1.15844786
-0.30624020
0.25637782
0.62016523
1.48431671
-0.80643499
-0.90459543
-0.60579383
-0.10965984
3.38520646
-0.72863132
0.25801247
-0.26160306
0.33853424
0.61995441
-0.52363479
0.04332701
-1.93796849
-0.07999814
-0.88900024
0.59193343
0.76022655
2.13890386
-2.05537486
-1.95059979
-0.45477039
0.03670907
-1.16336751
-0.07274332
0.07533181
-1.36763704
2.02317047
-0.00069646
1.70233417
-1.65041602
-1.07959068
-1.38668799
0.43639404
-0.61516118
-0.13557871
2.26962471
-0.85040635
0.13444591
-0.86929834
-1.61356032
1.01969945
0.83086145
0.08167809
0.43291178
-0.24653636
1.04141355
1.35797191
-1.65862286
1.19408190
-0.64547104
-0.47241816
-0.01758367
2.63082910
1.52932131
1.58009529
0.65311694
0.25899318
-0.36321086
-0.46281102
0.74265832
-0.51675659
-2.56234884
0.01205660
-0.97844142
-1.73058963
0.19319205
-0.54179871
0.36150309
-0.49637595
0.97564465
-0.36585137
0.74196887
1.10692990
-0.37866500
-0.53547370
-1.11926448
0.28824532
1.04153490
0.66574574
-1.15006948
0.32971147
1.12907970
0.58302033
0.69302189
-0.26055118
0.19244137
-1.13799787
1.29755926
0.43125558
-1.80256152
0.50035375
0.28303069
0.77426744
0.63979965
1.55368376
0.05103864
1.36133575
-0.17029151
-1.73515570
0.62952530
-0.84023100
-0.45098403
-0.72376728
1.10109985
-0.45319900
0.28255183
1.49415588
-0.66989267
0.10088452
-0.08627634
0.61297572
0.39651918
1.93675745
-0.85395044
-0.84252250
0.98788249
-2.68299961
-0.56109375
0.44900653
0.42586559
0.48158076
0.18087108
0.33075559
1.18085551
-0.77399009
1.28172493
-2.27085853
-0.39610139
-0.31770024
-0.78880548
1.14526176
-0.27841073
1.92898726
-0.79878002
-0.95323294
-0.94842654
0.76749265
-0.08331202
-0.75915891
-0.38073298
-1.43711531
1.62314475
-0.86245626
-0.07399887
1.62878025
0.14770930
-1.05532813
-1.74614501
-0.47430235
-0.93048877
-0.45756787
0.42349061
-0.17897403
0.01666312
-0.00729511
-0.84008163
1.06641889
0.82908982
0.99775636
0.13385412
0.69806063
1.64430034
-0.38925415
-1.12970376
0.44310424
-2.41782594
0.68384302
1.04671204
1.95308661
-0.08861192
-0.51793861
-0.79602325
-0.45222414
-0.29528594
0.84366661
-1.53874648
0.15358381
-0.31026208
0.69262177
-0.50800705
-1.17376959
0.95648789
2.37031937
0.81347340
-0.65725911
-0.79438728
1.45534348
-0.91582227
0.03735808
0.09111414
0.48839834
-0.46008801
-0.99752861
0.06490732
1.34029329
1.07746172
-0.64576739
0.08367987
0.62883353
1.17450690
-1.06295609
-0.57223767
0.78285176
1.66537368
-0.05961068
-0.20113449
0.09847002
1.09283745
-0.96034163
-0.57230520
-0.40251616
0.19827470
-1.88792670
0.36084104
1.45336592
0.86856872
-0.23166913
-0.28064680
-0.02239549
-1.96111727
-1.37609434
-0.54571998
0.04241223
0.53797406
0.41262618
0.02959699
1.61941040
0.27664819
1.44560158
0.77921677
-0.09552579
1.61933196
-0.42669728
0.33231276
-0.21538773
0.04300791
-0.38309351
-0.38875240
-0.08274147
0.06976463
0.89606756
0.60291022
0.01606377
0.53846264
-0.19491705
-1.36402321
0.20329148
-0.65603018
-0.40959454
0.89203066
0.45344964
-0.67401409
-0.57592112
0.09108263
1.46224630
-1.63548768
0.02157668
1.41714454
0.50285542
-0.76892298
2.38180304
-1.93772960
0.85771799
-0.88078165
0.78758276
1.88797212
1.48202300
0.94076008
0.23871869
-1.00688112
-0.42135432
-0.87574899
0.28182283
0.20886846
0.04281490
0.25338259
0.79247642
0.69677103
-0.27142873
1.20427394
-0.27555490
0.97786701
2.13898945
1.91814113
-0.14577326
-0.49705473
-0.82895249
1.42047679
-1.16971421
0.29908618
-0.34133732
-0.31899956
-0.45000297
-0.28818402
-1.93044317
-0.12924626
-0.72440714
-1.27343321
-0.87320650
-1.36368239
-0.22785601
1.00295448
-1.34020042
-1.00861466
-1.83731246
-0.28425962
0.88284600
-0.21648613
0.89546978
-0.94817984
-0.12987578
0.26920715
-0.61731797
0.88018680
-0.12058489
-2.39723921
0.27077907
0.66397661
-0.39411303
-0.99215847
-0.49812284
-0.69747937
-0.45151556
-0.85802770
-0.20599023
-1.05384123
-0.21158017
0.15544546
0.44189528
1.26269972
-0.66466290
1.90873075
-1.22039151
1.55431414
-0.42861909
0.44051951
-0.06278240
-0.00575026
1.87212324
0.45295200
-0.13754866
0.22441772
-0.14875537
-1.16688526
-0.73705274
0.57641178
2.09760737
0.32216221
-0.48719069
-1.06042027
-0.70985752
0.39087799
-0.06655594
0.30019590
-0.34413737
0.96305257
0.96340126
0.83469200
0.73382014
-1.32414103
-0.86581385
0.22643964
1.70800138
-0.37117490
0.38900942
-1.05660045
-0.54484975
-1.04281783
-1.32353592
-0.02581282
0.56372279
-0.88773060
-0.58952123
-0.10612601
-0.83114755
-0.89140344
-0.93957436
0.03700897
1.16684902
0.78881377
0.73097444
-0.95615536
0.78158730
-0.00185508
-2.01943541
0.19227259
-0.22930437
0.25911695
1.07471383
-0.42692560
-0.14089134
0.68462437
2.42835641
-0.60277319
-0.11849047
0.18228914
1.65245557
1.09288728
1.46093225
0.92401093
2.02831984
1.09254050
0.74647540
1.25967360
2.01925039
0.30276185
1.44742680
-0.57007086
-0.59211421
0.12826404
0.60639471
2.03363156
0.64952040
-0.04967105
0.23784509
1.31188130
-0.17544365
-0.44377050
-0.07803562
1.87352169
0.83480209
0.72471368
-0.18487565
0.70416147
-0.34680143
0.20287916
-0.00067826
0.99736202
0.09478233
-0.31430605
-0.62507921
0.60438657
-0.62980849
0.21146610
-1.00562119
-0.37047186
-1.83759618
-0.17787032
0.81126606
-0.13882694
-0.55802816
1.76980734
-1.26552045
0.84417319
0.05564002
1.06867623
0.39526716
-0.85221732
-0.07864611
-0.67248094
-0.40187466
-0.88311714
1.41836584
-0.56560236
-0.84351152
0.66445267
0.86032164
-0.77848667
-0.57111084
-0.09715054
0.49561140
-1.31632662
1.49598515
1.36415207
1.55102229
-0.05525797
0.93048972
-0.71369940
0.00438072
-0.91056353
-0.21461824
0.05819288
0.97976840
0.21071406
-1.77136230
-1.01263130
-2.17836523
1.50684416
-0.34693748
0.92580444
-1.32986343
-0.66288054
0.60488623
0.34806564
0.21938179
0.10186076
-0.77000350
0.07652104
0.11595954
2.07298136
-0.19775937
1.32031357
-0.09100457
-1.33461118
-0.68702728
0.42550093
0.76453519
-0.53588468
-0.28147578
-0.58362299
0.36093834
0.85194623
0.80461591
-1.50567794
-0.26867464
0.11101922
0.45932654
2.56721663
-2.01137042
-0.07405940
-0.65591937
0.39781117
-1.90087843
-1.96553016
1.04118121
-0.44909433
-0.26350155
0.80038536
0.26879522
0.51195633
1.07759798
0.43409580
-1.54176593
0.44062257
-0.23653744
0.01927810
0.83815038
0.22132333
-1.34826970
-0.22507039
-0.50619507
1.28321505
-0.55986625
-0.19716033
-0.91892034
2.04965115
-0.19845633
-0.57475644
-0.10504650
0.98798108
0.55997050
-0.54387611
0.54075724
-0.29393834
-0.10030470
2.33063054
-0.82210320
-1.03306019
-0.31485781
0.09063635
-1.36508453
-1.61640429
1.44950080
-0.53592372
-0.02823245
-0.61263996
0.41090801
1.60053337
-0.49778208
-1.49128687
-0.09505701
-0.64299107
-2.10437703
-0.55028045
-0.53949904
-0.29442310
0.16222715
0.26967525
-1.64015198
0.71012932
0.11065567
-0.33574358
1.59306741
0.08818531
-0.59106535
0.47254097
-0.19207446
0.78955072
0.56867653
-0.08350911
0.36184302
-0.91431642
1.57254469
1.36554301
-0.95579231
-0.56434137
-0.18743180
-0.62998587
0.08731616
-0.84765363
1.62315178
-0.80736619
-0.67336828
-0.21064709
-0.23351617
-1.19637191
-0.65136617
-0.54946935
2.20085645
0.35944015
1.16377354
0.84529871
0.73573160
0.18505746
0.03398636
-1.04519403
0.47042000
0.24303955
-0.09120413
0.35040969
-0.77070898
-0.72524500
0.18411994
1.03801680
0.77042705
-0.59262139
2.13851428
-0.23994830
0.10636343
0.36123994
1.42932487
-0.30103418
1.17526793
1.81802404
-0.43660077
-0.33579609
0.48972008
-0.22354826
1.13789248
-0.77911001
-1.40964103
-1.04666996
0.38538185
0.68165267
0.44049427
-0.52739114
0.98025286
-0.27360153
1.30061841
-2.26591039
-0.42970854
-0.03559368
0.03783799
-2.64186954
-0.26427078
-0.45729804
-0.84818619
-0.15333976
-0.02792790
-1.92641771
-1.13121521
0.42311457
0.83241552
-0.87817264
1.22176218
0.39910293
0.80166537
-1.66406465
0.93778062
1.11428678
0.87060547
-1.73995674
-0.38589859
-0.14985904
-0.18557113
-0.72993785
-1.53648508
0.82094634
-0.43612203
0.36416200
0.83323407
-2.08048058
-1.30573905
-0.01125903
-1.09556520
-0.54732823
-0.81942266
-0.46880016
-0.13261966
-0.79957622
0.21125868
1.41290307
0.54868317
-0.29731306
-1.24219954
1.60650969
-0.85983407
1.37744987
-0.85863400
-1.30324447
-1.53426969
-0.68970376
0.92472464
-0.55001497
1.93873382
-0.20155548
0.10888042
-0.53815556
1.01764309
0.12022197
-1.01192367
0.22370720
0.16814286
0.83740294
0.39484236
0.77754724
-0.76953137
-0.87316269
-0.22675410
2.69376802
-1.42602921
0.38608256
-1.18128264
0.83588117
0.73914224
0.88277304
1.01701963
-0.05002175
-0.32799843
0.68384916
-0.56650466
-0.06206192
2.92204499
0.35615876
2.23593974
-1.26743305
0.19155152
0.71625501
0.34176409
0.44785485
-1.12205124
0.53081107
-3.10056734
0.57951528
-0.11410666
0.18151268
0.57451218
0.41995183
0.94210279
-0.44591823
1.97156143
-0.65597916
-1.02730179
1.85007191
0.70363581
-1.84874499
0.08093508
1.70767105
0.76323068
1.52131975
1.84602690
-0.70004058
0.12822784
1.29105318
1.21186590
-1.87819362
0.10105616
-0.93208605
-0.23349848
0.34988141
-1.86596060
-1.26436532
-0.10175435
0.15477322
0.92374742
1.38209343
-0.83510041
-0.17037925
-0.01910407
0.68893582
0.35285395
-0.68272406
1.87697327
0.66197038
-2.47257423
-1.41237473
-1.32723236
0.58759654
0.05844763
-0.99751544
-0.45275748
-1.65155077
-1.04640532
1.54053211
0.10435141
-1.35226858
0.54670686
0.99639577
-0.68351835
-0.56370157
-0.89098316
0.90853858
-0.99546397
-1.17028272
-0.76101893
0.28659496
-0.67021686
-0.64229059
-0.40547261
-0.52611673
0.23918729
2.02557826
0.92900783
-1.05011165
-0.05809788
-0.87194437
1.24022806
-0.28165188
-0.81249797
0.46740597
1.54399955
0.80353779
-0.26685673
0.90329379
0.25822026
1.24026620
0.44752619
0.85386157
0.01025173
-0.89993852
0.02676611
-1.45865834
-1.29794312
2.41756439
1.38526452
0.78087020
1.35845304
-1.99509752
-0.76657915
0.45837379
-0.18794866
-0.58483404
-0.33438918
0.97844946
-0.49485523
-0.64723527
-0.03822095
-0.05468749
-0.18507046
0.25464845
-0.97892427
-0.72804719
-0.46248156
-1.38783920
1.46354020
-0.38131389
0.66665071
-1.82405365
-0.51362252
-0.14280069
-2.24037051
-1.03583741
1.75011122
1.31863809
-1.28116560
1.50800025
0.85382324
-0.20426433
1.07049513
-0.34673497
0.48300031
-0.20641918
0.34468651
1.96145618
-0.54821229
0.03228934
0.63338047
0.09033298
-1.15571117
-1.70381987
-1.38513732
-1.36948478
0.91118497
-1.18282855
-0.86053449
2.14451790
-0.07364002
0.79015595
2.19117188
-0.66113210
-0.82689333
-1.28279650
-1.23829746
0.84182173
-0.64871430
-1.04671669
-0.38092825
-0.00200390
-0.29641676
0.58572644
-0.36064640
0.35330373
1.45764399
-0.69804579
-1.93909192
-0.38764942
1.38568532
0.60225201
0.81457967
-0.38805193
-1.06236207
-0.78367716
1.26460040
1.00716925
1.59495413
0.96357322
0.11431326
0.18562108
-1.17725241
-1.17689347
-0.37606174
0.31053030
3.22622561
-1.57330108
-1.07767773
-1.52080631
0.05671140
-2.66501808
0.28684506
-0.58748275
1.62471712
-0.36689389
-1.00964630
1.81210780
2.29807472
0.33683586
-1.69973707
0.34691742
-0.29427025
0.01836153
-1.81876409
-0.41149208
-0.98078150
0.04541920
0.96532762
1.34122980
1.42734241
-1.33444059
0.54351223
1.32942605
-0.65221792
0.06011574
-0.41330555
0.84162462
-0.51253808
-0.55541253
-1.61022162
-0.12107088
-0.67545676
0.28391451
0.00966127
0.95733243
0.56216717
1.06730938
-0.15966062
-0.69663817
0.65820003
-1.16489029
1.33450592
-0.20706511
-0.15826483
-0.32974824
0.27375978
0.73927945
-1.36138761
0.55112261
-0.67674756
-0.57765275
1.62770760
-0.52549058
-1.39620507
0.33549729
-1.20942807
-1.77418566
-0.21961567
-2.41474795
-0.38945612
-0.68339938
-0.46867657
-1.27824080
0.79638082
0.35604879
-2.51871419
-1.16732061
1.70433283
1.42998850
-0.68913144
-0.42337793
0.15458255
0.05432211
1.39972806
-0.99579293
0.00978790
1.48978329
0.85126412
0.86635697
0.80591381
1.52803922
-0.64148742
-0.65010804
-0.85569876
-1.49323595
0.84853160
0.62217110
-0.20276521
-0.70707357
2.27743316
-0.34208888
1.77118814
-1.35059452
0.43615901
0.34146312
0.62079167
1.75582659
1.37712574
-0.11540020
-0.66930860
0.28931364
0.62188578
-2.11776662
-1.28697956
-1.00670719
0.20503584
1.39927948
0.56752455
2.30578542
0.30870411
0.80413765
0.99348861
-0.74110031
-0.59977478
-1.49326098
-0.85724765
1.71933782
1.83719397
0.38356310
-1.01442218
0.26065886
2.69182277
1.35626948
-2.12020802
-0.06063584
0.62925369
0.37008318
1.04572439
-0.73781025
1.46993971
1.27080524
1.16767585
0.35029268
-1.50855207
0.33787119
0.57999909
0.01440568
-2.00422120
-0.37836018
-0.71557075
0.65157431
-0.21563016
-1.22828460
-1.20678985
0.41586015
-0.41275239
-0.79856622
0.91184348
0.60573339
0.06732407
-0.84613156
-0.11190984
1.08814132
-0.80059689
-0.15681599
-0.26959875
-1.21244144
-1.14692426
0.64466953
0.75118905
0.06171890
0.14966947
0.35892507
0.60196525
0.84031236
0.20798028
1.46920323
-0.43082279
0.09629475
-1.46452630
0.24772285
0.43876210
0.46702850
-0.89681840
0.97178203
-0.24250610
0.15820025
1.28982186
-0.11531805
0.49085692
-0.92012727
-1.02106333
0.42188522
-0.29803720
1.84126508
1.15493834
-0.20115554
0.04697520
0.19432430
-0.57137501
-1.01045680
-0.48743799
-1.20021522
1.19210994
-0.31655303
-0.70066047
-0.02005669
1.80040598
-0.02801376
-0.07479580
0.61760116
-0.84463304
-0.32164276
0.05099008
-0.24994007
1.60083103
-1.40556872
-0.19848867
0.97210360
-0.37030172
-1.39661813
-0.41398990
-0.22103032
-1.52801251
-1.31351125
0.66859883
0.46684235
0.04724589
-0.77845705
-1.20217943
-0.04026889
-0.53639525
-0.82751137
-0.99548191
-0.92676508
1.39460921
-0.81799620
-2.11684346
-0.40903229
0.61469889
-0.63423610
0.66626120
-0.93809360
-0.18271425
-1.19326520
0.92941308
1.15970170
0.06954029
0.56343049
-0.59755218
0.55730510
0.11051679
-0.64467949
0.10127890
0.10895976
0.22271638
-0.42454907
-0.19156536
-1.28733206
-1.15949810
0.43546471
2.50148344
-1.34374917
-1.04339814
0.73377281
0.85270947
1.31433654
0.46072304
1.87729931
1.58284223
0.36062694
0.75006789
-1.54644859
0.48469129
0.02785092
-0.28669944
0.85333568
-0.15397498
0.41095334
-0.08393595
1.00241399
0.48643863
-0.56168544
-0.69172949
-0.94541824
-0.69137526
0.46197957
-1.62945724
0.81179774
-0.82470453
0.78311723
-0.41149172
0.05927410
-0.50879169
-0.68654519
-0.50869679
0.31005144
0.59844077
0.48991618
0.42120984
1.41416395
-0.31292048
-0.54204714
0.05719206
1.11060166
-0.05586289
0.82344711
-0.46188849
0.85037810
0.52369350
-0.18551596
-1.58481514
-2.33681989
1.20988512
-1.30479944
-0.93835574
-0.22500817
0.11536355
0.50378972
0.79921597
-0.05903099
-1.47651851
-1.38673246
-1.30547893
-0.61317384
1.76955783
0.11760556
0.09896474
0.60186708
-0.93437922
0.03618269
0.06682393
-0.61916113
-0.17041935
-0.08317120
-1.52310717
-0.29151833
0.93508381
0.52383697
-0.75620198
0.40835783
-0.21492136
-1.60414469
-0.84838152
-1.27477002
-1.03693473
-1.95919549
-0.51676565
-0.84983069
0.18544877
-0.18919007
-0.40812331
0.90574718
-0.07710956
1.09277558
-0.07051834
1.02697098
-0.90602702
-2.03198862
-0.66713434
1.36637497
-1.36067879
0.29710653
-0.83698916
-1.14252770
0.34931421
0.92409939
2.14830041
1.01033401
-0.91288131
-0.73426759
-0.04306106
-0.46015626
-0.78892839
-0.24447325
0.60435319
-1.85735965
-0.05328932
1.08661842
-0.35612002
-0.10846599
0.07680386
0.84273195
0.64103276
2.22866440
-0.18134120
-0.08673366
-0.60184550
-0.44792753
0.78130078
-1.92918503
0.66914099
1.61712289
1.63418603
-0.07789220
0.70740789
1.10115361
0.48951930
0.15520842
0.23946999
-0.14015931
0.04496715
1.01681185
-0.37149972
-0.53107798
1.41318905
1.08920217
-1.15077150
1.29809248
0.57076734
-2.02185392
-1.07006133
-0.92297846
-0.22837467
0.95870721
2.19105625
0.08225443
-0.24302983
1.32919085
-0.40420464
0.93754238
1.33342195
-0.93440402
0.69880533
0.99224836
0.53923178
-0.48721838
0.75006646
-0.06888893
-0.26836777
0.31691033
-0.29004142
-0.13021438
-0.72938061
-0.60880911
1.33107138
-0.11966749
-0.31860942
1.90111518
-0.91416627
1.12635756
-1.57966053
-0.91354531
0.95866632
-2.87850261
1.60323596
0.52256203
-0.38595182
-0.57456499
0.90493488
0.44953796
0.30016065
0.94363159
0.33156484
-0.22932535
-1.97726917
-1.19447112
-0.66510248
0.08201554
-0.02205187
0.45130002
-0.97323996
-1.91529155
1.24757528
-0.39462861
0.62829453
1.09794736
0.15215877
1.24393320
-0.69012952
-0.80409604
0.43575487
1.45439792
0.58594888
0.56726420
-0.84251225
0.46116593
0.55206853
0.78227794
-0.77101725
-0.29395467
1.21192527
-0.45228419
-2.27739501
-0.02101204
-1.02187335
0.26198784
-1.23594224
0.70896512
-0.53914595
-0.13800766
0.23506415
0.47787550
0.78016096
-0.86637872
0.18705329
-0.33975726
1.17449999
-0.00465670
-0.13978690
-0.48994651
1.45559418
-2.36897850
-0.25513807
1.67264032
-0.53605533
-0.70580918
-1.25475633
-1.74535203
2.28099656
0.79688597
0.63359666
0.59214252
0.55459219
-0.17803453
1.02201557
-0.17886865
0.07306800
-0.19072622
-0.31534106
0.70685709
-0.38629740
-1.75591111
1.97837782
0.32819745
-1.09446800
-0.44340539
-1.15400755
0.68010396
-0.62621927
0.45448807
-2.22792077
-1.89968681
-1.11568558
0.33352560
-1.06071806
-0.06645780
0.38831559
-0.36289108
0.58190554
-0.09624910
0.18515457
1.31500447
0.05886660
0.26508543
-0.38055700
0.02434074
-0.16798423
0.03353094
-0.73409677
0.07044058
1.71763599
0.78433508
1.18290412
1.06690538
1.41074193
1.55524039
1.14553452
-1.10148549
-0.82633972
-1.49266517
1.60305083
-0.60203391
-0.04522925
-1.34593570
0.71608198
-2.14187694
-1.55429649
-0.40202364
-0.68350738
0.00789220
-0.76139206
0.53745681
0.56814504
-0.99589163
-0.63585693
-1.24191165
0.72714019
1.68211746
1.05689013
0.99956131
-0.05059857
-1.00707614
-0.32638910
0.31141034
1.14970100
-0.03456884
0.37327570
-0.11250731
-0.52171141
-0.99531633
-1.19672084
-1.98409069
0.48666850
0.23274237
-0.04804185
-0.34117928
-0.82432288
-0.37808636
-0.25376934
-0.97550356
0.35355970
-0.22531019
0.20802332
0.73020488
-0.79575187
0.62528241
-0.93537289
0.43923283
1.32364595
-1.66712749
-2.84509969
-0.73594069
1.47462070
-0.71703112
0.32657582
0.62271285
0.04438263
-1.57319105
0.12634133
1.29481769
1.26233435
-0.44188982
1.21825302
-0.85601485
-0.88173723
1.02845204
0.01414063
-0.60943091
-1.48657930
0.34533590
-1.43655038
1.82675803
-0.52432674
-0.54297560
-0.92921925
-1.56036568
-1.39738154
0.91918689
0.43990096
-1.53168905
-1.80475390
-1.12743783
-0.56941009
1.91440058
1.35935414
1.75289381
0.46157205
0.95072162
-0.77904040
0.41713610
0.05255391
-0.61514610
1.08774650
-0.58523488
0.05336691
0.35038036
-0.85292321
0.42514172
1.05272830
0.02919864
-0.06571752
-2.08975077
2.06558156
-0.06211724
-1.07585907
1.48699188
1.08406472
-0.17104557
0.98729944
0.98663944
-0.24357702
-0.84022188
-1.13003337
0.45176390
-2.14444017
-0.97884035
-0.75101036
-0.74286944
-1.56509316
1.61010003
0.60851407
-0.04154531
-0.50429809
-1.19248807
-0.36840057
-0.01554789
2.56869221
1.17613304
2.13020062
1.14209282
0.02778767
-0.88028175
-1.13187301
0.69703358
1.52916408
0.30562583
-2.37183380
-0.73167789
1.25537372
0.52637863
1.06870770
0.38062206
-0.86491895
0.17239557
0.16227822
2.53699589
-0.43423516
-0.46280977
-1.13179147
1.84996259
1.30392671
-0.41232929
-0.61334383
-1.63395262
0.64681226
-0.05052024
1.38336706
-1.38149667
0.51941216
-1.50737178
0.08001558
-1.34452772
1.13871694
-0.57530463
-1.04530752
-0.63315511
0.91455412
-0.59453738
0.16203882
-1.56538260
-1.65476644
-0.60434610
-0.71884400
0.69843060
2.41703510
-1.98542583
-0.27203217
1.99151540
-1.54685116
-0.64239806
0.74187744
-1.73717201
1.13628495
-0.07564621
-1.85074389
0.51232982
-1.36514640
-0.43175480
1.92022800
-0.76664048
-1.54212821
0.01585886
0.08571559
-1.49272335
-1.46817243
1.44970322
-1.81370687
-0.14223495
0.98023582
0.95752180
-1.49496877
-0.76910579
0.16402090
-0.37597844
-0.20027091
-0.34837267
1.68770134
-1.03274179
-0.17766392
-0.04013270
0.86902159
0.98108494
-0.15984346
-0.09602275
-1.04615402
1.59082067
-0.01566888
-0.70548534
-1.24311936
-0.50469160
-1.15913355
-0.81957346
0.03588696
-0.67314255
0.17147082
0.22851090
0.16418350
-0.53561413
0.39468655
-1.26968884
-0.06005212
-0.07512558
-0.89544231
2.04270029
-0.76885742
-0.03098671
0.91333777
-0.22495444
-1.07944536
-1.01581526
0.97134286
0.73796856
-1.13104832
0.13749118
0.61648834
-1.40419662
0.29954010
-1.19708836
-0.92435813
1.64463353
-0.41610119
-0.74918920
-1.74958706
1.21629322
-0.67525285
0.21883421
0.45011127
-1.25806057
0.81850028
-0.07965424
-0.11167592
1.02733231
0.58015645
0.53864539
0.63621348
1.00585151
0.53491366
2.34596992
0.36451226
-0.51446819
-0.71210581
-0.06989722
0.13428780
-1.30396116
1.16138637
1.10363078
0.72180021
0.98538095
1.32238472
-0.07503616
1.24486160
0.68874735
-0.03402474
-1.01933074
0.43356737
0.48941350
-0.12945433
-0.39690086
-1.05761778
2.18771267
1.04142809
0.71187967
-1.03339744
-0.36706814
-1.23265600
-1.77856076
1.35142517
0.14348939
-0.79907316
-0.24181236
0.07450390
-0.52169579
0.67553282
-0.53871620
0.33456784
-0.95184666
-0.19068734
0.41123575
0.90183067
1.47086418
-0.20785172
1.96323025
-0.65165091
-2.03798699
0.24036340
-0.60966742
-1.40519691
-0.24651596
-0.50931567
-1.59403956
1.05014014
0.64379019
-0.23378633
0.15018788
0.73739076
0.75235063
-0.29075480
1.75929618
1.05574608
1.42935240
-1.68875813
1.61882269
0.33478230
0.27331546
0.98055643
0.99782884
-1.10112131
0.38638049
0.73107785
-1.72365618
0.75974911
-0.11314165
-0.62929255
-0.68778938
-0.62255490
-0.52545285
-0.52395111
-0.45929116
0.73168874
-0.18176645
0.59250277
-1.64152730
0.42578602
-0.48973975
-2.57070136
-0.90922582
2.42676878
-0.45001879
0.06897224
1.31930983
0.85725230
0.05522965
0.13845889
-0.04928218
1.44249463
-0.09324785
-0.37351179
-0.44617540
-1.94434798
-0.91584760
1.08960068
-0.62034410
-0.27701667
0.96972996
1.32396531
0.47456923
0.75896657
0.68030751
1.00112820
-0.96830505
1.87760901
-1.68051195
0.49744985
-0.50836861
-0.48524535
0.19290526
0.58204579
-1.85488820
-0.79116857
-1.75418997
0.88499957
1.13391769
0.97472972
-0.21422805
0.21053031
0.04483716
-1.14442039
0.77361351
1.15873182
-0.30479628
0.55903554
-0.30952948
-0.38200703
1.11899054
-0.61756194
-0.19780290
-0.40227598
-1.60612929
0.04537702
1.28755820
0.27084020
-1.54617631
-0.77790648
0.20017770
-1.30451608
-0.66034347
-0.17278019
-1.58072245
1.41117227
-0.35819474
0.82351595
-1.30257642
0.45501098
-0.13624851
-0.60312903
-0.33215618
-0.72324163
-1.00426102
-0.21749072
-0.56994551
0.88073033
-0.86448282
1.18924439
-0.80999756
0.88505274
1.16926694
1.46501958
-0.52512532
-1.53864026
-0.11792464
-0.48891860
0.00958658
-0.43176341
-0.31152838
0.13245338
-0.90289056
-0.59840775
-2.35507035
-0.04999553
2.92639565
-1.46880758
-0.21787250
-0.29483587
-1.66007280
-0.41927141
0.29845712
-0.71267545
-0.28644183
1.26332211
-0.88942492
-0.03433850
0.57675409
-1.67458713
0.26290336
2.44356084
-0.40347826
-0.72076434
0.03210077
-0.05610783
-0.60767901
-0.10221727
-0.86676633
-0.35452205
0.39137200
-0.39511964
1.34649813
0.45347798
-1.91653574
-0.12737106
-0.15194170
0.36796701
0.02274316
1.18238246
2.14872003
-0.71079153
0.56057823
-0.35562479
-1.21555543
-0.30630335
0.29306844
0.20679882
1.31173527
-1.22741950
1.84876633
1.20447993
0.10320368
0.74872518
1.22670674
-0.31633079
-0.18046075
0.02294440
-1.69185519
-0.97344321
-0.89487070
1.88935256
0.81872404
-1.50877666
0.35802570
0.00125900
-2.25679374
1.13666356
0.54939991
-1.05086136
-0.10709538
0.21031107
0.67436802
1.14188945
1.82123959
0.18593051
-0.26591095
0.10882609
0.89531380
0.56332934
-0.84231853
1.06911588
-0.99559760
-1.18712401
-0.75437826
-0.48683831
-1.43813920
0.16925411
0.97300148
-1.12900853
1.55382669
0.08367853
1.41903579
0.43637690
0.40283364
-0.26143748
-1.23535073
1.40696454
-0.04188269
0.20097803
0.91074049
1.15938699
-0.79958320
-0.53564405
1.73879898
3.28457570
0.27317485
-0.80903155
-1.71179938
0.20185973
0.18816893
-0.25738502
1.13934755
-0.72458023
0.35351160
0.96774763
-0.75227118
0.18780708
-0.47344968
-0.91391087
-0.07162768
-0.02915855
-1.04662013
-0.65791339
3.09074378
-0.01279624
-0.23997973
1.23500729
0.45515591
2.86401963
-3.05328345
-0.45973870
1.06458342
0.31751335
-0.66807193
1.33756745
-0.55043697
-1.20452392
-0.67211568
-1.42948496
-0.85796595
-2.24908614
-1.01190484
0.09618691
-0.38720211
0.94597268
0.80207396
-0.63331896
0.08255786
-0.53430390
-1.10578752
-0.02251783
1.87307048
1.79017782
2.10788345
-0.85630673
-0.47525784
-0.00662036
1.11300874
-1.26715565
0.07185881
0.13698882
0.09408307
-0.34480798
0.31572220
1.47562897
0.12011360
1.41181397
-1.91983807
-0.40061444
-0.49124527
0.66056734
-0.02775748
-0.37271965
-3.64509654
0.34898719
0.71542734
-0.53456748
-0.51608568
-0.86585218
1.43827450
0.53114343
0.06051830
0.70466346
0.51180458
-0.50543612
1.23351300
-1.91416836
0.84743065
0.26103008
-0.38714525
-0.20036843
-0.91369504
1.71487987
0.96426779
-0.22069812
0.14990847
0.74160290
-0.49430239
0.81447744
-1.77079642
-0.31705225
0.64527762
-0.05401192
0.10193098
0.71308953
2.34496236
-1.17147243
-1.55291474
-0.06287766
-0.38415706
-1.92362154
0.53646904
-1.34217727
-0.48189643
-0.74153632
0.55647063
0.13209088
-0.45225370
0.77265429
0.24266744
-1.52469862
-0.79923856
1.61000335
0.10817425
0.69347745
0.48677552
-0.98782492
1.67253304
1.91104531
-0.97812623
0.18477306
0.80887091
-0.26391482
-1.31695187
0.37737736
-1.12736607
0.64705676
-1.05220854
0.23345561
-0.56522089
-0.63950539
0.46692583
1.60661316
-2.01358199
-0.48483980
-0.09520689
-0.89313972
1.79663205
0.82361317
1.23962665
1.13733077
1.80333567
-1.38765812
0.45916450
1.42873585
0.11771033
1.46338665
1.29677188
-0.96369153
0.94264543
0.64058805
0.63421822
2.44232178
0.77023947
1.27769053
-0.81144351
-1.38055456
-1.50642514
-2.30640054
-1.06515443
0.03298897
2.18815422
-1.50390208
-0.62303239
0.27636898
2.20848536
-0.91540080
-0.20729719
3.23639107
-0.00978995
-0.23418100
-0.92021537
0.85761452
0.12622969
-1.02217972
-2.48834753
0.88741791
1.54512405
-0.53318501
-0.16160205
-0.06853372
-0.00374500
-1.01843011
-0.06658826
-0.48627499
-1.58943200
0.49205580
-1.37070310
1.02439058
-1.00283825
0.79159695
1.60155737
-1.05377007
0.29294708
-0.95869505
-0.51643920
1.58130217
0.56071317
-0.91769588
1.04905784
1.07833064
0.08013704
0.48281011
0.61606717
-0.90813804
-0.59688812
0.34444797
-0.42601499
0.42734244
0.31587094
0.58571464
0.87263423
-1.21732080
-0.72076911
-0.09100034
-0.67366606
-1.87436926
0.31006002
-0.81287324
3.21661186
0.19862930
1.97188711
-1.39995003
-1.95594430
-1.07900691
1.22900510
-0.02553953
-1.19408357
-0.51574844
-1.19537461
0.23257522
-0.30154231
0.22756466
2.85875034
-2.52964616
1.34785533
-1.16793227
0.99460030
-0.80953521
-0.05124334
1.30302131
-3.27621531
-0.42110309
-0.29764974
1.07588065
-0.98403043
-1.07713974
-0.36847124
-0.02939757
-1.00513113
0.55318052
-0.03294547
-0.17338164
-0.68613648
-1.01207972
-0.17256668
-1.47247255
-0.80617350
1.06570518
0.54644448
0.79148370
-0.74817133
0.75530648
-0.15491670
0.10922727
-0.85363305
0.06020788
0.89176685
0.46932420
0.78339058
-1.95780873
-0.75029010
-0.78454053
-0.26110485
-0.44731051
2.27082109
1.08350170
0.85684037
-1.89763463
1.23125851
1.02938735
0.33304256
0.57883453
1.02760947
-0.77882135
0.44066450
0.13570748
-0.42053485
-0.18980691
0.26708183
-0.07621112
0.38364136
-0.28147942
-2.26508474
0.27123106
-0.18150082
0.96774423
1.40782940
1.42777193
1.12753892
-1.13518608
0.69680148
-0.74210244
-0.62306619
-0.01872842
-0.81615126
-0.38140059
-0.95978254
-0.99522930
1.33145761
0.52723968
-0.32573146
0.18854076
0.71156651
0.97582996
1.50071859
-0.34879726
1.68396294
-0.67989969
-1.32579052
-0.41418341
0.08703634
-2.01310563
0.24951200
0.74320042
-2.17078805
-1.38498330
0.46724588
-1.28876877
-0.19431573
-0.66218293
0.51302302
0.45175594
-1.69137204
-0.66781557
0.52474552
-0.90387845
-0.23524977
0.96818125
-1.83034730
-0.11403814
-0.11352744
1.90776706
-0.72344774
-1.07888532
0.08560124
1.76719749
0.71126771
-0.45429999
-0.54755068
0.97889894
1.12678671
0.32826218
-0.28118697
-1.28038692
0.06932838
0.75615197
0.70211804
-0.24397974
-1.35469425
0.57019502
-0.14018779
-1.35569024
1.88613427
1.10968721
-0.16707842
0.59754640
-1.19626009
-0.07685440
-0.57573706
-0.03562352
-1.50910687
1.13064802
-2.11453056
0.45139870
-0.46551383
0.81877989
0.00926402
-0.69232923
-0.18266064
-1.25992727
0.79114759
1.64192617
-1.33291137
-1.11241782
0.42512923
-0.37267402
-1.04847705
-0.27559492
-0.50661963
-1.19237709
0.44354141
-2.25156522
-0.39756587
2.49668527
-1.27035046
-2.00100327
0.62977004
0.02321764
-0.63121617
0.12343552
-1.05117691
0.02581567
-0.25722501
-2.42300630
1.03303444
-1.29227149
0.63491094
0.53405851
-0.47152427
-0.53290898
0.51578313
-1.94141150
0.34645730
-0.47681892
0.74371105
-0.23472244
0.30157015
0.63638997
-1.52682054
1.07030332
-0.53683472
-1.60028803
-0.06110750
0.05807604
-0.53080803
0.65637326
-0.66165775
0.82608867
0.64280343
0.49390268
-0.46841931
0.13796125
0.23505104
0.66868663
0.61009884
0.65281200
0.03454661
-0.14307564
-0.65357286
-0.23593104
2.51137877
-0.31172979
0.90003592
0.02307909
1.28555405
-1.06102753
-0.13965298
-0.00970267
1.97064102
1.07300603
-0.55203366
0.26376241
0.07926434
-0.54900908
-0.08414224
-2.30221152
-0.23078240
0.33815849
0.21127374
-0.43648556
-0.57723713
-0.21973187
-0.51278317
1.11182797
0.91454697
-0.13706745
-0.91739601
-1.89758813
1.56912255
2.52045655
0.60646927
-0.11505344
1.38621080
-0.78802425
0.19625755
1.26131773
-1.34991503
-0.40265635
0.03549243
0.39757952
-0.02312264
1.24091017
-0.01930174
0.46580082
-0.40899059
-0.24499340
-0.38257736
1.20647681
0.25942156
0.34874675
-0.53750354
0.84443194
1.10631692
-0.29219466
-0.17835030
-0.50106144
-0.56002474
0.40185377
0.08481736
0.65432048
0.33400404
-0.60250419
-1.11898673
1.12895262
-0.35005850
-0.40069485
-1.05850172
0.90283638
1.20105064
0.68788558
0.46273538
2.48754811
1.63502252
-0.45231453
-0.31929782
0.10040508
0.06470008
2.04348850
-0.65238857
-2.93244576
-0.09156942
-0.75319701
-0.71601951
0.65444291
1.70582259
0.39341357
-1.73048699
0.86152649
0.13107422
0.74321717
-1.35250688
0.45248222
-0.97850806
-0.92092359
0.79306120
0.00348504
0.38182935
0.24352486
1.07744837
-2.07548213
0.68689674
1.84119296
-0.87791365
-1.55554271
-1.81840754
1.20345271
-0.39370495
0.36668402
0.54334831
-0.02997114
-0.19279911
-0.65427852
-1.65771484
-0.21361348
-0.17303322
0.90539283
-0.64596033
0.96806222
-1.05409336
-0.60091144
0.29094851
-2.13374543
0.11779196
-0.63181341
1.10497880
-0.41178837
-2.06809807
0.48125166
-1.79524851
0.38967356
-1.89499962
-1.07837534
0.11185498
0.59981334
-0.00110981
-0.22293749
1.63444972
1.50364399
1.28787005
1.58924568
-0.60921115
0.55417806
0.79040062
0.53431594
-0.09204417
-1.07078087
-0.57780761
-1.97709203
-1.09712780
0.53026831
-0.04865865
-1.91848564
0.99285728
1.04052949
0.02748024
0.39562407
1.35544240
1.99595249
-1.90941298
-2.21496558
2.28674030
-1.39457893
-0.11518934
0.34809032
0.28221077
0.67826164
-0.38097262
0.44939274
-1.29889333
-0.08481766
0.04375055
0.70438302
0.46111518
-0.65073526
1.17936158
-0.21607727
0.59620363
0.67756236
-0.06221733
1.07858682
-1.02958477
1.91068590
0.65345728
0.64931506
1.34340489
-1.08644164
0.52976036
0.55989051
-1.89518869
-0.97635013
-1.86436367
-0.58730227
-0.25737998
0.56126809
0.27844372
0.56750542
0.68133563
0.70468545
-0.57269001
-1.87161350
-0.88502026
1.03743112
-0.25701243
-1.91805804
1.69692552
-0.63916045
0.82476282
-0.57414740
-2.46551847
0.86541504
0.10629638
0.14557338
0.03869057
-1.21718788
-0.37127408
-0.07220776
0.52366972
-1.13760614
0.56743526
-0.60213822
0.24424277
0.65349251
-0.70376700
-0.11444446
0.35244045
-0.23554190
-0.07985850
0.51639742
-0.93783027
0.37170833
-0.93120205
0.16123573
-0.04154345
0.58864659
1.84363627
-1.81506562
0.51215535
0.20945287
0.38766983
-0.47415975
-1.47797108
-0.38786981
-1.51682770
-0.68350673
-0.16770037
-0.17597735
-0.39902854
1.99275696
-1.39382041
0.73324364
-0.50790882
-1.21359289
-0.24976534
-0.38889557
-0.15500091
1.86045074
-0.84658122
1.06264937
-1.06459618
-0.50532168
0.64499998
-0.39524660
0.87928766
-0.23052748
0.51841646
0.10156933
-0.48277089
-0.39456382
-0.19926660
2.26205826
0.57259095
1.03548241
0.81721598
-0.15189232
-0.19628809
-0.82836908
-0.49609992
-1.58838201
2.51282382
1.61028516
-0.05669057
2.72961235
-1.47887301
0.54874682
0.43215841
-0.69751263
1.77802634
0.57746464
0.60408932
-0.24637821
1.15365553
0.56391788
0.46342140
0.28526092
-0.50457549
-0.60666394
-0.20049256
-0.86978090
0.35568926
0.49594772
1.50621891
0.29290584
-0.94252115
1.24513280
-0.23215751
-1.62791872
0.13379057
-0.47176942
-1.31358755
1.61909449
0.05896332
0.56843871
0.22150725
-0.57950908
0.80134004
-0.27384228
0.03146351
0.64880222
-0.45500049
-0.57595509
-1.94029534
2.49657440
0.63658667
0.33189180
-0.99680799
0.18210985
-1.85424614
1.71560848
0.47476047
0.24491863
0.02577689
-0.39966699
1.44984198
0.23656102
-1.87727916
1.15026021
0.96188301
-0.30054843
1.56755567
0.23302202
0.94978708
0.76029438
0.73240608
-1.26300609
-0.15728942
-2.54812551
-0.98165315
-1.52811003
-1.58181036
-1.10773349
-0.94992137
0.91866416
0.80487162
0.51070887
-1.01925564
1.64885712
-1.32043576
0.36326554
-0.56066585
-0.90996224
-1.38867009
-1.58683336
0.72874278
-0.92833823
1.08797812
0.86995435
0.96380013
0.44730890
-0.96504956
2.29975486
-1.41050816
1.50330722
-0.44692171
1.19245088
-0.04079724
-0.81264073
0.59011000
-0.06865580
-1.47533762
0.00605621
-1.21404600
-0.72035074
0.30543005
0.70729256
-0.57408249
1.06521904
0.60863531
-1.05653417
1.51846063
-0.39501774
-1.62264633
0.11999092
0.64660358
-0.22899811
1.72847116
0.58809364
-0.31341681
-1.61969841
0.79482138
1.66426575
0.54092842
-0.80602103
0.81626546
-0.70931572
0.44199470
2.35951376
-1.73638093
0.09825011
-0.84218013
-0.34712347
1.12440276
-0.79190952
0.38390571
-0.40999287
1.72239792
-1.95191431
1.16660643
0.11590548
-0.73495650
0.19030920
-0.89336634
1.30514264
-0.89876789
0.00683230
-0.56333208
-1.14571214
-2.43249679
-1.14395893
0.69143641
1.07029665
-0.12799035
1.31990016
0.47779602
-1.04100549
-0.05173112
-1.39579570
2.04468822
1.78426826
0.33103096
-0.03786466
-0.99766755
-0.70050609
0.50469875
-1.30960035
-0.39472249
-0.01635232
1.12747681
-0.82807750
-0.56288409
1.03792775
0.58538932
-0.12099943
-0.26446962
0.46934262
-0.30652630
-1.50230873
1.20279503
0.23564140
-1.17403877
0.48110366
-2.56776047
-0.21297970
-2.06288981
-1.99856663
1.05073476
-3.36587358
0.24526583
1.43130839
0.35225067
0.43693084
0.11211818
0.42681956
-0.29228866
-0.10322363
-1.01061594
-1.32210958
-0.59749234
0.59601051
-0.24528752
0.23162109
0.61176336
0.76435584
0.98576236
1.17467272
0.85070735
-1.57024336
0.18158233
2.36995792
0.73691666
-0.49582702
-0.92788702
1.12298155
-0.28150699
-0.22981457
-0.15032551
-0.76013058
0.57532334
0.49217242
0.61690164
-0.50568300
-0.35687819
-1.05850303
-1.24600124
0.06160372
0.82964873
1.27267635
-0.35111499
0.01792873
-0.07267883
-0.29149824
-1.70565295
-0.35293400
-1.30635858
-0.64641500
1.63353443
-0.40045249
0.71877980
-0.02052794
2.07286358
2.56268525
-0.98631287
-1.49315190
-0.23998539
-0.13108270
0.28176126
1.84398663
1.01360619
-1.02104855
0.11215387
-0.44693726
-0.90549004
-1.52735436
0.13584325
-0.92573321
1.30359566
-0.91739559
-0.56055301
0.46138257
-0.14055441
-0.65360576
-0.38569790
-0.70937592
1.64966249
-0.06529330
1.01258075
0.04302511
-0.11879783
0.61643082
-0.66066760
-0.91612983
0.11709425
-0.86160684
-1.60620713
1.42950809
-0.19068563
0.71468514
-1.34810054
0.48519549
0.30926976
1.90304339
-0.66123337
0.30877087
-0.45328978
-0.45772970
0.45864195
-0.65444773
-1.45206416
0.44374487
1.47156203
0.50610560
1.09962630
-2.17836595
0.53522056
-0.99513119
0.40568879
-0.33292651
-0.27690467
-1.12560296
-1.13644600
0.73817426
-1.52974641
0.00232556
-0.98347718
-1.33293462
-0.65399712
-1.56278419
0.42470387
0.65299016
-0.76822144
-1.47805202
-0.46562687
-1.26312780
-0.46470717
0.28623304
0.65328753
2.28651452
-0.70234269
-0.63904423
0.67303818
0.79617584
1.34517324
-0.54359293
-0.23106794
-1.10078716
-1.48791564
-0.61757535
-1.63807142
-1.40440571
-0.41457123
-0.13290799
1.44241226
0.01843040
0.70854425
-0.44331270
-0.44218284
1.21123862
0.38130403
0.25316769
-1.71650958
-1.35942602
0.35586253
0.26504260
0.58730495
-0.14682499
-1.78416026
-0.18193731
-0.80420083
0.33725989
1.16862714
0.81794286
-0.57271379
-0.50808805
1.85440099
-1.22826982
-1.44795048
1.37667251
-1.01779246
-1.90048420
-1.48299897
-0.18679646
-0.72402221
2.49276471
-0.39203885
-2.03373814
1.01963472
1.26758718
1.43428791
-1.36102724
0.13812847
-0.69281948
-0.67780656
0.30917543
-0.68248320
-0.26151121
-1.57268643
1.10830224
-1.20452118
1.02459395
0.47205791
1.44140077
-0.54408342
1.03384531
-0.14119355
-0.70833331
1.42603099
1.04117703
0.61692464
-0.14066902
-0.33434308
-1.57945919
1.04234111
-1.04120970
0.79267687
1.50392020
0.84850973
-1.84508049
-0.64444584
-0.81675845
1.04800928
0.75958312
1.00992870
-0.62624794
2.20531988
0.75791883
-0.05824973
0.93380910
0.71176726
0.88255280
0.12225374
0.31645694
-1.67799091
-0.57745999
0.23330624
0.73866814
1.24201286
0.35602653
0.77562594
-0.27604586
-0.45449534
0.15530054
0.65143800
-0.62319851
-0.27011475
0.57100761
-0.62655580
0.13212992
-0.02652398
1.56502748
-0.23151666
0.64672273
-0.37332201
0.66939741
1.17773855
-0.28563768
-1.12365079
1.33566773
1.44009852
1.64660454
-1.34418988
-0.15594873
0.79123420
-0.46408176
-1.69640863
-1.93016016
-0.00449970
-1.18498468
-0.86921608
1.54451632
0.79678333
-0.11111454
-1.15082669
0.49247670
0.91596073
-0.05827907
0.65268171
-0.21168923
-1.72479641
-0.71322614
1.73751903
1.47650111
0.88694912
-0.19640100
-1.30524123
0.06230141
0.88058555
-0.29606181
-1.44896340
-0.55850273
1.08027303
0.78728414
-0.48712566
0.72093260
-0.92962366
0.88627529
-0.54341257
0.13315779
-0.57960838
-1.61068964
0.59555787
0.00599611
2.71212149
-1.18779767
0.15123346
-1.16216040
0.84695005
-0.76321930
1.37516379
-0.96867549
-1.12808919
1.33651412
0.00872484
1.29345632
-0.68856466
2.05608130
0.62547857
0.07813170
1.48632598
-0.78153312
0.39400798
-0.05922487
-1.87744236
0.13809223
0.66293913
1.31729794
-0.13882974
1.38918734
-0.30586883
-0.32250106
-0.79144329
-0.26146007
-1.19748712
0.16898011
-0.21513182
-0.02679428
0.44579306
-0.97169554
-0.88690472
1.07385957
-0.01689594
1.59439898
-0.15716173
0.10473350
-0.98209083
-0.32912505
0.74298030
1.40746093
1.26001787
-1.48691523
0.88274008
-0.57544637
0.24581400
0.99979156
1.16356575
-1.01797724
0.73804551
0.21053454
0.78980833
0.89854568
0.54514909
0.10652734
-1.89409614
0.28477645
-2.49334288
-2.09161258
-2.06005120
0.22981142
-0.49757075
1.20706451
-0.51802003
0.34233794
1.47496712
-0.35083011
1.10448396
-1.17939806
-0.98847985
-0.62756819
1.04803455
-0.68842739
-0.90217310
0.43394685
0.81430787
-1.50058031
-0.04032295
-1.35181701
0.96430320
-1.16675818
0.65778661
-0.26320842
-1.90503681
0.48951623
-2.12508702
-0.26437387
0.07526858
-0.65916634
0.24291769
1.62562692
0.17400473
0.58316743
-0.08521648
0.19876993
-0.25425386
0.04662248
0.36500397
0.25300077
-0.20083654
1.24131155
-1.84359062
0.52321911
0.74449164
-0.16584994
-0.31429976
1.44098365
-1.83273494
1.28390706
-0.46706054
-0.84026575
-0.38513196
0.04845357
-0.83178878
0.62828022
0.63980991
1.79492211
-0.32706022
-0.21811549
-0.16678560
0.64284611
-0.74928594
-0.45270011
-0.09011352
-1.02006781
-0.53234804
0.77454162
-1.04039824
-2.52621603
-1.19444752
-2.52321720
-0.50488651
-1.29583156
0.16736883
0.35997626
0.59373146
-1.38684678
-1.29599738
0.01078455
1.07434607
0.57650614
-1.49033654
-0.66882640
-0.75438058
0.40081525
-1.00864160
0.49961832
0.66698200
-0.28514442
0.37424546
-0.68747365
-0.49028987
0.51345146
-0.09101621
-0.63952053
1.18690300
0.90069145
0.98941636
-0.88537300
-0.59776586
-1.46613240
-0.71983457
-1.13648450
0.52912343
-0.30214739
-0.33053726
-1.01348341
0.79819357
1.75407922
1.47835755
0.75549966
-1.89611101
0.67701542
-0.62364763
0.57002825
0.66462958
0.33435521
-2.66688466
-0.92458469
-1.26833153
-0.19317412
0.48711610
0.50234121
0.52372605
1.05235231
-1.88936138
-2.11556768
0.88871831
-0.00854570
-0.43545526
-1.38534927
0.40192741
0.77771699
0.25816110
1.55051529
-0.47256836
-1.05523098
-0.21723434
0.25194758
-2.04814363
-0.14183314
0.58615941
-0.21529420
-1.34379387
-1.01723278
1.65585637
0.45031309
-0.40445900
-0.41112769
1.80460632
0.18860763
0.20204191
1.03158295
-0.75779277
-0.31727439
0.06147593
0.53933048
-2.23863769
0.57086951
1.15539026
0.76903641
0.36702570
0.58580470
1.27101791
0.86971575
-0.51078141
-0.02290841
0.08527909
1.11258829
1.01890731
-0.79665858
1.33759630
1.22548747
-0.07881228
0.30681980
0.52550220
1.60224903
1.19441628
1.17167509
1.82032120
0.86305898
0.27238390
-0.00096264
0.35971487
1.35843670
0.26074666
0.40365249
-1.15352452
0.56122732
0.87895888
0.66534352
0.04794723
0.54337907
-0.72043204
-1.32163584
0.88798928
0.48372453
0.51781905
-1.07855701
0.59125018
-0.26719192
0.08219917
-0.38670877
-1.76072097
0.74921542
-1.58269250
0.07368428
0.19164276
-0.10762566
-1.36665118
0.99302822
-0.59095222
0.13738282
0.06847242
-0.96002162
-1.28948295
-1.51754761
-1.29853594
-1.16478372
-1.84937739
-0.46826634
-0.86563838
-0.84020698
-0.88178855
-0.40522817
-0.73371053
0.64640027
0.28676790
0.24184600
-0.37086153
1.02075732
0.65859514
-1.58858633
0.24578947
1.26203120
-1.82077813
0.74296314
-0.06458025
-1.31871343
-1.37115574
-0.83044446
0.88549477
2.19373679
-1.71733582
-0.48157910
0.62283760
1.63521886
-0.34300581
0.55141902
0.41331995
0.11926325
-0.11601017
0.63289088
0.15422262
-0.79521608
0.67312652
-1.54557693
0.38980344
0.71136129
-0.15683106
-0.33165410
-2.69357777
0.43315664
-0.05042379
0.38321450
-0.17048119
-0.05082793
0.49762389
-0.47821411
-0.34403047
0.09789330
-0.76706940
-0.06234044
1.73319221
1.15951717
0.77688122
-2.17207336
0.59696972
-0.14644225
-0.88148236
-0.31505325
-1.24014258
-0.71519047
0.36164406
0.42466760
-1.30012965
0.42349380
2.13854265
-1.38665044
1.13291359
-0.19805126
0.11100876
-0.33273807
-0.24338178
1.97133291
-1.76690042
0.73292285
0.94828397
1.56134439
-1.24463856
1.41684830
0.37394097
-0.08336361
-1.00475240
0.37647232
-1.82105792
0.56405056
-0.00809257
-0.68330950
-1.99112856
0.78876501
-0.51531494
0.51700115
0.73728913
-1.72854805
-0.16864674
0.55090803
-0.47035888
1.55155230
-0.50231117
-0.92013043
-0.01934344
-0.13438460
-0.97593284
0.91290778
0.16599388
-0.66461414
-0.52013683
2.17065907
0.69530869
0.16348924
-0.48357946
1.41757214
-1.69601047
0.94090074
-0.04389833
-1.03477585
-0.18674786
1.14409292
1.02646840
0.19106537
1.44938648
-0.76728439
1.18779862
-1.47752512
-0.28839138
-0.57433754
-1.24945378
0.63882262
0.16697016
0.33104941
-0.93933237
0.38787937
1.08113134
-1.59289026
-1.42814982
-0.33417740
3.79756594
-0.17287908
-0.09715731
-0.42972636
0.09334073
-0.43092754
0.75114667
-0.83655530
1.61111820
-0.64463812
-0.94638461
2.05915999
-0.27235013
-0.15886967
-0.66235369
0.58281308
-0.67003423
3.01084805
-0.24850166
-0.10971000
-0.11566488
1.00632942
-0.30356848
0.01770293
0.94672847
0.06175262
1.04537332
-0.93884140
-0.09387653
-1.15803063
-0.20524484
1.07597017
1.86731970
0.42678925
0.55456465
2.09414053
-1.88277304
0.18780534
-0.31505910
0.17269588
1.51636291
1.18960416
1.44420195
0.90842575
-1.01199913
0.60559475
0.81106186
-1.07480490
0.06236156
-1.35251915
-1.43403637
0.39545453
0.50759143
0.19119307
-1.41875541
1.34563684
0.44129780
1.28788781
-0.61778349
-1.29232204
-0.46127319
0.75737709
0.27936816
0.28444144
-2.74363589
-1.16006446
0.68303144
1.48839498
0.65640575
-0.34143865
-0.62318969
0.53526539
0.40057737
-1.23140848
0.35589615
-0.82652539
0.87824827
-1.22854328
0.58494306
-0.06906369
-1.34340870
-1.16547239
-1.37108779
-0.43151894
-0.84660345
-1.32639861
-1.97377884
-2.25380445
2.27948213
-0.66205633
0.02762833
-0.82244611
-1.09746122
0.96841657
-0.70441234
1.13337624
1.25429952
-0.21675296
0.17554291
-0.17246750
0.60328829
-0.75822735
-0.53740072
1.17584205
-1.41521752
-0.89709973
-0.03947169
-0.95643932
-0.51844382
0.33443132
0.57387656
-0.56506652
-0.02397962
-0.36861670
-1.56667721
1.08216643
-1.42571461
0.17572132
-1.34119785
0.72740144
-0.08729991
1.56907082
-0.01444360
1.11851692
-0.48913613
-0.48416737
0.19471972
0.60638791
-1.66259432
-0.74339157
-1.08771229
-1.80557191
-0.12753664
0.66034955
0.62416053
-0.06184754
0.47945723
0.16486081
-1.18959320
0.43373874
1.28655148
-1.23282468
0.12251340
-0.43769833
1.39316189
-1.13645625
-0.81864536
-1.12222540
-2.30965114
0.96352732
0.72237295
-0.67179555
1.60653162
0.41716772
-0.21175544
1.16584933
1.65519297
0.88299948
-0.96090704
2.28872299
0.64720041
0.13157260
0.11223055
0.79693830
2.49789214
0.47343197
0.48850998
-1.96541393
0.65075284
0.20303835
0.62998557
0.93763244
1.69351792
-0.56855440
-0.45611596
0.49647841
-1.04764175
0.52667582
0.05822062
-0.86743891
-0.88051236
-1.15080678
0.68538594
-0.49354857
-0.84391373
0.46070966
2.76793957
1.59525406
-1.14589620
-0.37632605
-0.52782840
-0.29986548
-0.49270132
-0.47648886
2.75605941
-1.07798231
-0.50622082
-1.25899601
-2.73311448
-0.70275050
-0.55404878
1.15490544
-0.75987577
-0.08992685
1.24691021
-1.55356252
1.65914869
0.92975181
1.72024465
0.62571168
-2.14946413
-0.72772115
-1.26978052
1.43005705
0.20842083
-0.50509304
-0.66615266
-0.14945915
-0.06899685
0.16478565
-0.54858023
1.34450150
-1.57349050
-0.16939224
0.47211617
-0.69936138
-0.69604003
0.48588941
0.87952983
-0.50849092
-0.19566195
-1.64703083
1.25454378
0.64582682
-0.81994241
-0.25415853
-0.32075796
-1.75013351
-1.12740469
0.95792389
0.53617853
-0.82380897
-1.60454512
0.05706502
-0.94309199
-2.45713019
0.94713056
1.10355639
0.78432095
0.04284608
-0.37864035
0.34096447
-0.68255287
0.19159293
-1.99563909
-0.16971232
-0.51738775
1.82463109
-0.16443212
-1.21107292
0.38164264
-1.58034575
-0.19728573
-0.73900306
0.25864029
-0.43767744
0.31035364
0.57789397
0.24221826
0.15680955
-0.53919905
1.20203996
1.47949040
-0.79934949
0.58361244
0.04685080
-1.15630937
-0.39424643
-1.30202520
0.95898491
-1.11457598
1.34313428
1.09375870
-2.64250588
0.28696296
-1.73967254
-1.34109557
-1.53886271
0.26669395
-0.06601550
0.68748713
2.61889338
0.10257300
0.73316842
0.55965459
0.14140058
-1.13890219
-0.07976487
0.88490659
0.62444127
0.24440271
-0.88435882
0.29981115
0.95564699
0.66806304
1.10369909
1.26430678
0.19010252
0.51473832
-0.75635231
-1.71266413
0.41869515
-0.25839713
-0.86713403
0.06406432
-0.85997093
1.05349088
0.62436831
0.00606679
-0.76718146
-1.42486978
-0.40318292
-0.14065775
-0.62354141
0.19213240
-1.67193925
0.30596048
0.83540094
-0.54528230
0.58216876
-0.79612988
1.73438656
1.77713704
-1.00165379
1.15601599
0.60035747
-1.56776392
0.17764987
0.25341609
0.94019520
-0.24733746
0.22916614
-0.11528251
-0.86229652
-0.16680901
1.10440671
0.60012037
-0.82902247
-0.18017383
0.80621749
-0.71451724
-0.28504640
0.74061698
-0.95928842
-1.65150082
0.84036928
1.27518952
-0.43850383
1.18612635
0.13322738
-0.35797834
1.58467627
0.65863413
-1.24133158
0.84388262
0.85067910
-0.29444268
0.28319556
-0.41927546
1.33934712
-1.93006372
1.17731595
-0.91519451
0.65978605
1.20119417
-0.72636253
-0.31750640
0.13828917
0.05340757
0.04728731
0.44237694
0.72891235
0.39140525
0.59413904
1.92406023
0.45268750
-1.17547894
0.05731921
-0.57224923
0.56005538
-0.75339329
0.72618896
0.41328567
1.79873812
-0.90060472
0.35612363
-0.78555858
0.28703758
0.07970612
-0.81337583
-0.62207049
1.84311056
-1.01485765
-0.44937402
-0.45335338
-0.42590737
-0.25648519
-0.13245353
0.45251432
0.44273797
0.27806762
-1.67755783
0.77309382
-0.15325166
-0.60189027
-0.68831313
0.77511936
1.05068803
2.12631822
1.25303447
0.21037672
0.92570025
0.27288505
0.58413035
2.93827724
1.23263729
0.00171452
-0.75688881
-1.17914307
-0.37279207
-0.21441056
-0.16413087
0.96141416
0.85090125
0.15910630
2.41293192
0.00281025
0.80224782
-0.05966720
-0.61272341
-0.27137461
0.00802930
-0.72748852
2.15463495
0.06066644
2.27284026
0.70413989
-0.76524812
1.02057183
0.30074406
-1.08027828
-0.46412423
1.15983260
0.46224999
0.45811558
1.04514432
0.50530511
1.32396996
0.38098368
1.14374757
-0.30928141
-0.37879312
0.18221372
-0.66115576
0.52569097
0.16992408
1.17030478
0.07607033
1.46169686
0.71260649
-2.54882836
0.24877733
-1.45453846
-1.17803311
2.48959589
0.23440760
0.55109286
-0.27995193
-0.37772092
-0.60910398
-0.23596203
-0.65824884
-1.43421304
-0.11490154
-1.33473825
-0.14551139
1.07772839
0.91180253
-1.18058038
0.78678918
0.62984365
0.85669500
-0.94538331
0.91558629
-0.34185070
3.03415346
-0.89051902
-0.95601153
-1.47135377
0.25711197
0.80002511
-0.15882747
-0.08123804
-0.95667982
2.59540129
-0.76359290
0.39526355
0.84392774
-0.09019455
0.07689700
-1.54734039
-3.00238395
-0.79892594
-0.75836807
0.70090133
0.09976572
-1.79067791
0.21902741
1.80691838
1.13650644
0.63926739
0.00269958
0.61017919
-1.94162846
1.36569738
0.04440553
1.07060361
-0.01276899
-0.97474349
1.70806813
0.17250220
1.73307467
-1.68926108
-0.53438169
-0.92869312
-0.00258437
-0.79506475
-0.51237011
2.01540160
0.86340368
-0.77646577
0.25346419
0.92409110
0.47144866
0.45183671
-0.03218516
-0.83691663
-1.12663221
-0.59852523
-1.70567358
0.59966892
-0.96971565
-0.49974582
-1.21921849
0.33767670
-0.83125687
0.28435662
1.97363019
1.52061641
-1.61034214
0.05694126
-1.31579733
-2.29181933
-0.22594760
-0.27381942
-1.35090852
0.45380285
1.08284199
1.00730789
0.64884943
-0.37500110
-0.18414252
-0.83920497
-0.18780078
-1.91181028
0.06289388
0.40178338
-0.50146252
-0.86199796
-0.58988738
0.17331001
-1.45460963
1.43071473
-1.32766461
-1.46704948
-0.65831155
-1.36020815
0.67933851
1.14703310
0.43183386
0.00541177
0.35361198
-0.52019495
0.11605693
-0.54001701
-0.94793451
-0.87290955
-0.40815648
0.16810808
2.43012929
-0.25363678
1.12359560
0.77340752
0.29197899
-0.29493755
-0.61769778
1.60361946
1.37406409
-1.62427557
0.29518437
-0.34333357
0.57042319
1.50191391
-0.47477141
-1.60299098
-1.00296009
0.97846353
-0.72551268
-0.15777160
0.63449693
-0.06248431
-0.06883741
-0.30662113
-0.36711523
1.03395271
-0.46521851
0.76072854
-0.84487408
-0.31450504
-0.03868388
0.50571358
0.79157048
-1.45648694
0.44396135
0.40056753
0.08379569
1.24895298
-0.72607964
-0.46686873
-2.59817743
0.48380995
1.69851124
1.71551681
1.59451568
0.68650442
0.60468739
-2.67993498
0.31661311
1.42285299
-0.06264032
-1.07723510
0.08688158
1.11812258
-0.00666480
1.20761049
-0.71478015
-0.01073931
-0.42968771
-1.04640579
0.89496469
1.49621725
0.88377684
-2.24788904
0.80854607
0.32361156
-0.13927956
0.43082181
0.23875742
0.30300260
2.47435617
-0.17817356
-0.39186734
1.37195194
-1.51526606
-1.60940635
0.10436925
0.66404074
0.69462872
0.22422212
-0.74197614
-2.52374434
-0.99319381
-1.08986187
-0.91551393
0.09478007
-2.33070540
1.75861287
0.20873901
-1.26954007
0.00452187
-0.89669955
1.87776899
0.08346445
1.04056871
-0.25710645
-3.62926292
1.60852861
-0.83608687
-0.32631496
0.04711537
-0.27394539
-1.48211014
0.82246572
0.63719070
-0.35836825
0.64092362
-1.87781489
-0.28484493
-0.96063817
-0.22439198
-1.13360012
1.16576838
-1.55488062
0.45429149
1.99380231
0.26890180
0.97484881
-0.13752733
-0.31624782
-0.53915477
-1.43178833
-0.43261015
-1.60344577
0.77726781
0.78333062
-0.79029161
0.35874179
-1.34640253
0.28795677
-0.97190624
0.62125653
0.71706945
-0.30798620
1.23495078
1.14038229
-1.95156848
-1.12270892
0.57674271
1.26158822
0.36681262
-1.49603224
0.26693347
0.34297043
-0.35696420
0.79531002
-0.78993875
0.69324976
-0.27139616
0.26408109
0.24290520
0.07190336
-0.04570159
-1.42285728
0.19690762
-0.60915160
0.83087653
0.65194267
0.96334261
0.20867026
0.06562018
-0.76543170
0.84235567
1.66612625
-0.01196634
-1.15600181
-0.51288277
-0.53965098
0.02679119
0.18664704
1.84219205
0.32496631
-0.51150072
0.21248081
1.44289637
-0.49629933
0.11931423
0.08408561
-0.75354213
1.50397861
-0.00929229
-1.79626822
-1.97152984
0.04118105
0.70992041
0.21314387
0.17143017
1.85513866
-1.66741753
-0.34007201
-0.25624377
0.41582572
-0.82336497
-0.00371142
-0.11748146
-0.19828930
-1.61532593
0.77279508
0.13744505
0.40556893
0.86149251
0.41490003
0.29280329
0.57349044
-0.31189883
0.27995938
-0.63610977
-0.89375526
1.43136334
0.22238405
-0.64319795
1.22612429
-1.14954853
0.37597528
-0.37173891
0.54292607
0.88016015
1.86590362
-2.24171233
-0.12230448
2.38280988
-0.05522509
1.03065014
0.92874682
-0.47578314
1.62244976
0.39349961
0.02132567
-4.12486315
1.39357424
0.66950542
-0.20047523
0.48419824
1.56713617
-0.33280078
0.18364272
0.98443681
-0.74563205
-0.97574025
0.16802852
-0.41572449
-1.35090101
0.59341162
-1.79859436
1.55928946
-0.59607148
-0.92837340
1.59166873
-0.50248027
0.10951965
-0.51990080
-0.38128519
-0.41588217
0.11187290
1.00754094
-0.15108144
1.23940945
-1.25191903
0.61001998
1.46309292
0.50524366
-0.59569311
1.24979305
0.78963774
1.11571276
0.73057646
-1.30421126
-0.99005204
-1.48273742
1.23673308
0.45511881
-0.09080134
0.24952337
1.13429940
-1.21706939
0.92964488
0.98220730
0.42495093
1.87829936
0.91627622
-1.05037868
0.00720373
1.24971914
-0.07706503
0.84367788
-0.54071993
-0.35839257
-1.27049470
-0.86881989
1.05659628
-0.15643044
-0.33111966
-0.13398333
-1.67447925
1.36813271
-1.78587556
0.77799916
0.78514189
-0.12449749
0.35644978
0.61160737
0.81089973
1.18505538
0.58298552
-0.90656680
0.75863779
0.49811444
1.23084652
-1.25860286
0.53534615
0.49809337
-0.75988519
1.06344235
0.91754717
0.97094262
0.38343227
-0.23675115
-0.75761276
-1.69745493
-0.22429541
-0.16467044
-0.41031456
-0.64326113
-1.06853783
0.81344354
-0.36813909
2.28251886
-0.87914324
0.26408145
0.10408807
-0.63292843
-0.36236867
1.56055295
1.95135534
-0.01839803
-0.14554186
-1.07509720
2.29551315
-1.65529513
0.10757207
0.75852317
1.63262391
0.30436543
1.32077157
-0.77857566
0.56250769
1.80195045
0.92979157
-0.14090440
-0.30532932
0.38793218
0.20095558
0.58860666
-0.54192859
-0.32843196
-0.78807789
0.38074431
0.19422683
-0.90993023
1.12043381
0.98146433
-1.54587650
-0.99966669
-0.31375089
-0.51711178
0.56750721
-0.04831788
-0.18518712
1.26755404
-0.04398753
-0.27876741
0.78603005
0.51624912
-0.06419428
-0.94128567
0.13667409
0.25654137
-0.06124508
0.34709966
-0.30859959
-1.64422739
0.50521672
0.18091689
0.70905411
-0.20112680
-1.33593273
0.46647725
0.66240543
-0.19423597
-2.20908165
-0.12197431
0.09878588
0.19965345
-2.14255667
-2.14987779
1.08782244
0.06905226
0.38148803
0.27207720
0.00104984
0.50798434
0.64776522
1.99432075
-0.38236517
0.30460596
1.19678760
-0.38294944
1.05094850
-0.65844429
-1.14293802
-0.80900788
1.00200403
-0.27984604
-0.36478058
-2.08263564
0.41429693
-0.71874207
0.50361490
-1.37169051
0.29419240
0.38050979
-1.88475716
-0.41389504
0.91863590
0.14662257
-0.69306546
-1.34320664
-1.25492680
-0.17690632
-0.93087459
-0.37095669
-0.57713020
-0.53720385
0.07135054
-1.88703048
-1.62522411
0.93418288
1.49960959
1.19207096
-0.19845128
0.04147581
0.05270413
-0.31842282
-0.19134337
-0.17641322
-0.22902176
-0.11163977
0.03765371
1.35524762
-1.58515978
-0.08301959
-0.32756546
-1.15051925
-0.88599867
-1.30144334
-0.71951818
0.09033742
-1.71605957
0.33098537
-1.38877070
0.30308747
0.21157488
1.39993680
-0.55380452
-0.54401994
-1.77481270
1.23899567
-2.05859232
0.87369174
0.66320050
1.51685810
0.54541516
0.57327127
0.54494882
1.33427298
-1.40266430
-1.07905233
-0.72886533
1.01239514
-1.07639933
-1.53297567
0.43210766
0.21342409
0.42856041
-1.70403683
-1.00014627
-1.96365058
-1.50278699
-0.20786548
1.27742195
1.21363235
0.13444100
0.28450182
0.04533028
-0.40598583
-0.20322071
-2.86539173
-0.91439503
-0.32752892
-0.03219771
0.05972071
-0.67639595
0.80551761
0.40006161
-0.74099016
0.09634369
1.15496969
0.25642517
0.21963465
0.51590341
-1.24624825
0.03272763
0.66397530
-1.78294170
-0.11120248
1.21294451
-0.13879798
-0.29408172
-1.40823936
0.26698983
-0.60707319
-0.35418099
-1.45797110
0.26918831
-0.95904738
1.04419243
0.86774260
-0.16165154
0.32022515
1.72672904
0.11076868
-0.35097772
-0.84529352
1.02368569
-0.82039165
-0.82655942
-0.91118151
0.89828080
1.90425587
-0.83923912
1.10542262
0.85247773
1.10717022
0.62170029
-2.09358048
0.01060814
0.47336766
-0.56798762
0.96702969
-1.42343104
-0.62100750
0.85941195
1.19188237
0.43715900
0.27259868
-0.39661577
-0.56277072
0.37465423
0.77415168
-0.65217310
-1.21515381
-0.50696462
-0.69520086
-1.41432106
0.12878868
-1.06302118
-1.12894702
-0.13284864
1.18907428
-0.98587996
-0.88391477
0.15617998
0.84292156
-0.66979551
0.87961417
-0.83511621
-1.32565022
1.57837594
-0.03991958
-0.03388920
-0.81129587
-1.07732761
1.38779235
-1.10393941
0.85991162
-0.12031133
0.96049488
0.48474497
2.51418447
1.55941081
-0.31077373
-0.74634343
-0.37203568
0.57081473
0.94734776
-0.56320834
0.75784355
0.57305545
0.22816376
0.79901183
-0.57732069
1.24772918
-0.74191874
-0.82701486
-0.64350420
0.60334939
0.10589159
-0.60213119
0.34543604
0.96703911
-0.13211182
1.06798458
0.84203357
0.80414122
-0.35508737
-0.94000447
0.42224535
1.17817748
-0.35415819
-0.38165376
-1.53362191
-0.22783104
0.18243961
1.60249412
0.63449615
-0.15193801
-0.42033380
2.17090130
-0.04510159
1.31937838
-0.53088635
0.18788657
-0.27245161
-1.80363309
-3.11876297
1.33992004
-0.09170367
-0.30061102
0.33710605
-1.21505570
-0.70305306
0.57499278
-0.53664631
-0.18756330
0.11460548
1.12807167
-1.43988562
-0.00483964
0.00351807
-1.14296794
-0.74989432
0.97769171
-1.71443570
-0.39484286
-0.17898445
-0.39839596
0.92995536
-0.47428259
-1.21524918
0.88395596
-0.76302630
0.97052944
-0.63369918
-0.34776899
0.14264046
0.74999315
0.79338545
0.92833298
-0.56998491
-0.25220382
0.71321815
-0.66676533
0.13711774
0.25065556
0.73231024
-1.90788305
-0.40438569
-0.34632617
0.10197984
-2.45505786
-1.02905357
0.95033938
-1.19037342
-0.51402307
-1.20635831
-0.09186295
0.29366675
1.31555307
0.73108274
0.26386696
0.34124488
-1.08635342
0.51399595
-0.37591833
-0.28409556
1.01601279
-0.58363843
0.73475122
-0.25745910
0.30956516
0.06625167
-0.38561550
-0.38177967
0.35404664
2.56453013
1.27908421
-0.98487431
2.15151143
-0.60694844
0.03956622
0.34960181
-1.09809113
-0.36778903
-1.57505476
0.23117627
0.34297127
0.22055416
2.08125758
-1.40060782
0.07083473
1.26820338
0.76319134
0.79353732
-1.83125627
0.52848625
0.03753652
1.34907496
-0.50049692
0.78946966
-0.23808049
-2.82953978
0.96493924
0.60846263
0.83236891
0.43259618
-0.98500240
0.78141874
2.50263548
-1.10313714
0.91422713
1.08136702
0.92295057
1.78852487
0.37968671
-0.73994374
1.81320655
-0.44429797
0.30005467
-0.50595856
-1.37588823
1.00279403
0.51110369
0.22191542
-0.56834000
-0.95004380
1.53873158
0.54880917
-1.32031643
-0.39730540
-0.30172345
1.14253163
1.52119994
0.74355608
0.25167158
-0.82914746
-1.08606434
1.48469746
-0.52139467
1.92138612
-0.25777957
0.73004943
2.10442996
0.27872857
3.02844262
-1.73686397
0.17621060
-1.87352192
0.01568365
0.57686120
-1.08289742
-1.30359495
-0.49386105
1.34425855
0.13012160
-0.37548226
-0.31117511
0.82492369
-0.54509395
-0.69590902
1.21557271
1.14478803
-0.86153930
-1.73009062
-0.44132251
1.04105628
-0.74862194
-1.09291601
-1.41029418
1.98481166
0.93794626
-1.16268289
-0.20971459
0.88120550
0.91084594
1.64054501
-2.07984424
-0.56440604
-0.13337079
0.28794506
0.44467109
1.39456296
-1.75146961
1.96478057
1.02766311
0.62271929
-1.30292904
0.28664449
0.46153909
0.35755810
-1.42300701
0.85872144
-1.37957883
-0.46322510
-0.24033582
-2.28297353
-0.77730930
-1.17428470
0.98381430
1.80621016
-0.00460216
-0.86253870
-0.56276739
-0.99459255
0.95168632
-1.31431425
1.01410663
2.46109438
1.67544472
-0.94280744
-0.75231135
-0.37204710
-0.93943113
1.59015393
0.22476615
-0.68842930
0.73607033
-0.85071945
1.45118463
0.57221031
0.55909884
-0.31380814
-1.95684242
-0.31965822
0.01890340
0.59491605
-1.67518306
-1.02073872
1.56540859
2.27890110
1.46661150
-0.18632002
1.21536279
0.68361050
0.18169677
-0.94923961
-1.58469594
1.14927256
-0.66234088
-0.73836911
0.06792888
-1.17011476
0.91231060
-1.95860672
0.30534038
0.03827719
-0.31983343
1.41651583
-0.30382809
1.65405595
-1.19973063
-0.86270863
1.04288352
-0.09637080
0.75772959
-0.88349146
0.14019433
-0.50852203
-1.03850698
-0.06896055
-0.81259656
0.87263113
0.09073341
-0.08260438
0.20950848
0.56805575
-2.07068825
-1.45059967
0.68354440
0.78840238
-0.95012814
0.62934774
-0.01141766
0.29858905
0.17605270
-0.43122691
-1.23053765
-1.48845875
0.01464212
-2.23237038
-0.82910413
0.33198944
-0.94962382
-1.14965868
-0.42238849
1.42124355
1.38570499
-1.18422198
0.13911939
0.82063669
-0.41913942
-0.65118301
0.57220954
-2.00953102
0.25664192
-0.04869029
0.68028796
0.08936002
1.14130783
-0.61313593
0.03330978
-0.80878133
-0.03110968
1.75678587
-1.80718791
0.85881114
-0.61719376
0.75901091
-0.21403842
1.72192264
-0.21044920
-0.34315813
0.25339970
1.45218194
-0.04987426
-0.69745392
1.35581136
-0.48495016
-0.58604890
2.19041085
0.12115108
0.82263511
0.10696552
-2.15157533
1.31688881
-1.18757427
-0.13204503
0.21031100
0.07909396
-1.24588859
0.04661990
-1.13897729
-0.11674330
0.79446459
-1.41972280
-0.58816987
0.10763876
-1.26505339
-0.44523415
0.16798428
1.63402677
1.01797915
-0.25661919
-0.09224489
1.20789886
-0.22351097
-0.40555957
0.34222606
-0.24829327
1.35790527
-1.10609031
1.32259512
-1.86132228
-0.71081507
-0.28202337
0.27785310
-0.33469275
-0.47431734
0.66871864
-0.70177472
-2.24636674
-0.02070482
1.17165709
-0.34858477
-0.88831663
-0.30986774
-2.25293684
0.21941473
-1.45076025
1.54345489
-1.73762536
1.31272399
-0.36352092
2.27082705
1.88226199
0.09695522
0.32134515
0.80009484
-0.23648381
-0.94759780
0.19149874
0.03348482
1.48771000
-0.25267702
0.98842818
0.08626350
1.93018270
-0.51845813
1.29765868
1.29344487
-0.81061560
0.31410712
0.08824643
1.37815380
1.40048158
-2.13500500
-0.01168540
-0.12788188
-0.15180331
-1.28121710
-0.74153996
-0.17339039
-0.10501867
0.76217735
-1.08268511
-0.78085369
0.58160007
0.13860419
-0.12769203
1.03242791
0.21822987
-0.25024301
1.06209660
-1.25384235
1.17320073
2.10054755
0.15313087
-0.54423958
-1.48263025
-0.61651999
-0.09118854
0.01115515
0.45204997
1.75244665
0.05173963
-1.34985328
-0.69952869
1.27612889
0.72697544
-0.21986903
-0.75590265
1.11004436
-0.89420903
-0.43201515
1.14782321
1.44412088
0.13482055
1.11715114
-0.66338217
0.59682781
0.27971846
-2.55106592
0.70775133
0.35098946
-1.03410816
-1.95111001
0.34780267
-0.25772673
0.16020498
1.00289774
-0.05813859
1.74925220
-0.19727908
0.44326353
0.15132187
-1.87609363
0.36407229
-0.28295413
0.34217411
1.66475570
-1.25083971
-0.34070238
-1.66039419
0.14464472
0.13938637
-1.55570018
0.41497964
-0.96563452
0.32594156
-0.55146754
-1.13712454
-0.56430888
-1.50770295
0.27490562
-0.18487340
-0.75437731
-0.89295679
-1.03337729
-2.35889363
-2.41893077
-0.08746640
-1.03590727
1.03852499
0.66694665
-2.07291389
-1.73147726
-0.99053818
1.07295978
-0.65055078
0.54063827
1.16997457
1.20305073
0.64799643
1.31148207
-0.67903942
1.02753687
0.58063102
-1.90186024
1.81873214
1.14695728
0.45924628
0.37255752
-1.66292405
0.78122270
0.62829804
-1.31294155
0.15773584
-0.42062545
-0.31986079
-0.70510828
0.84625483
1.63849258
0.79312491
0.25952271
-0.83222353
0.09370924
0.73227978
0.26819539
-0.20295472
-0.78149062
-2.41238308
0.01785229
0.95579219
1.85534549
1.64844954
-0.10611112
0.72115165
1.20620716
-1.60660982
-0.08876545
0.44138128
1.61730444
-0.48207313
1.12674069
-0.45396796
1.00160599
-2.55293941
-0.84678668
1.01048350
0.82155991
-0.93700874
1.23317289
0.71727401
0.25252920
0.21491028
2.38963437
-0.49194688
0.48553669
0.17066932
-1.07832372
0.23322389
1.14934421
-1.70204234
0.89185703
3.07279348
0.72408605
-0.31428736
0.43325487
0.21426727
0.81200457
-1.50235856
-0.25072765
-1.22688150
-0.58001322
-0.82742858
-0.06288919
-0.92137098
-0.09225587
-0.30398807
-0.74802852
-0.46200740
0.85929096
-0.81453973
-0.34522977
-1.52450705
0.02375101
0.49600059
0.69331616
-0.22429593
-0.01082315
-0.55041349
-0.42005149
0.32095280
-1.76273930
0.47814089
1.96755433
-2.26566291
0.53996718
-0.18228805
-0.56613272
1.52277982
-0.35519093
-1.44752371
0.95593476
0.82725281
-0.63542914
0.75181693
-0.64125443
-0.54769349
0.81470281
-0.76076669
-1.37929928
0.26346847
0.46247151
1.51430321
1.71730435
0.93794525
-0.44433555
0.21437879
-0.20180151
0.24025117
0.22265050
2.24672389
0.01679633
-0.37575683
0.06851468
0.11908932
0.23703779
0.14585538
-0.53074008
-1.98967099
0.92656177
-0.29924956
0.64928412
-0.19155721
0.29840925
0.56592971
-0.78826219
-1.47573924
-0.07976723
-0.92557615
-2.38038230
-0.67098087
0.90443552
1.17076647
-0.41694042
0.23183928
0.46889749
-0.39292771
0.29747328
-0.53986424
1.10127831
0.62382072
-0.60646462
-1.79700601
-0.78122079
-0.37116250
2.27713871
-0.50933892
1.75617099
-0.01037151
1.82780588
0.54885095
-0.17711465
0.52177989
1.24630785
0.52068216
-0.98718828
-0.76548588
-0.63300890
-0.49672520
0.33604726
1.32002175
1.77505004
-1.00809300
0.58070350
-1.49947369
0.04159570
1.46762168
-1.90643108
0.96251744
2.36933136
-0.35459989
0.24593303
0.75969672
0.71613365
-0.78637743
-0.42969501
1.43985426
-0.23620285
-1.37893355
-0.48370862
-0.23522817
0.23902169
-0.78644013
0.66057551
0.95299643
0.12505876
0.40601555
0.21302581
-0.63499612
1.22858620
-1.67499793
0.86224103
-0.24145584
-2.28166413
-0.37567699
-0.69464755
-0.90575308
0.26886481
-1.16340780
1.81149590
-0.76684237
2.00132775
-1.11560416
0.55178690
0.00692341
-1.27084017
-0.28302482
-2.13479805
-0.22430393
0.59746027
0.19248435
0.41929775
-0.79340053
-0.51366937
0.67451376
0.35708502
1.29196155
-0.20105582
0.44428116
0.67906505
-1.31134295
-0.13349389
0.85460955
1.24359596
-0.16051979
-0.39437348
1.22517657
0.70634347
0.00722661
0.37127557
-1.57972610
1.68346012
-0.92256290
-2.86019015
0.33627963
-0.98882884
-0.67650682
-0.06875938
