9.27949488e-01
-1.12287030e-01
1.77352667e+00
4.98996228e-01
-3.56269181e-02
-1.53818238e+00
-1.88173726e-01
4.09564704e-01
7.24612117e-01
-9.07591283e-01
6.56366944e-01
8.10192466e-01
-4.04957026e-01
2.64375627e-01
1.31347227e+00
-8.62697840e-01
4.99902904e-01
4.51991796e-01
-5.04271150e-01
9.49935138e-01
-1.55747640e+00
-9.24097717e-01
-4.70338821e-01
2.66016769e+00
8.14045608e-01
-1.33323205e+00
-5.02845705e-01
1.07112718e+00
1.19747484e+00
-4.16691273e-01
8.96825314e-01
2.51468390e-01
-3.54466528e-01
-3.48823667e-01
7.96427071e-01
-7.52295971e-01
-3.02211046e-02
1.51253664e+00
7.44036376e-01
1.63302109e-01
-1.73490465e-01
4.03666437e-01
3.21232677e-01
-8.52020741e-01
-3.75603251e-02
8.87546420e-01
-2.15767908e+00
-5.85052073e-01
-8.19937959e-02
-1.23418665e+00
5.52237153e-01
-4.36801195e-01
1.57182649e-01
8.66977274e-01
-3.65011364e-01
-1.53780973e+00
3.61966014e-01
3.98978502e-01
2.98449427e-01
-6.80869281e-01
5.76138556e-01
1.36355255e-02
-1.14592418e-01
5.18426895e-01
7.04377353e-01
-5.67696810e-01
-9.88738179e-01
-1.33221477e-01
3.43108654e-01
1.11793883e-01
6.86599433e-01
-1.21033929e-01
-2.91924536e-01
-1.44449341e+00
4.56879362e-02
1.49340808e-01
7.68744767e-01
-6.63577199e-01
-7.48564780e-01
-2.14409113e+00
-1.85221279e+00
2.87359238e-01
1.34355081e-02
-2.08827198e-01
-4.86168951e-01
-5.25658131e-01
-9.42065239e-01
6.56955242e-01
-1.42527521e-01
1.20545089e+00
-9.22059342e-02
7.40660310e-01
-5.53804219e-01
-8.08627844e-01
-4.90624815e-01
-1.15288103e+00
-3.43116105e-01
-4.83748257e-01
-1.64360678e+00
1.73554018e-01
-2.14500880e+00
-6.53393924e-01
1.05280352e+00
2.69823894e-02
5.36881745e-01
1.46645021e+00
-2.39933038e+00
-1.09791625e+00
1.13111460e+00
8.79553378e-01
3.84152919e-01
3.01742464e-01
1.05189551e-02
4.51946825e-01
6.97378874e-01
-3.76816034e-01
7.02202082e-01
-6.65010929e-01
1.25893265e-01
-1.03453946e+00
-1.84505904e+00
1.55779219e+00
-6.92206472e-02
9.79227901e-01
-1.41921842e+00
1.03512812e+00
7.19339967e-01
7.48324752e-01
4.83837306e-01
-1.25069022e-01
6.45611107e-01
4.76138256e-02
-2.35635877e-01
1.48636949e+00
3.69272739e-01
-1.12204480e+00
-8.27070698e-03
-4.46285784e-01
-8.96501720e-01
1.16669226e+00
-9.08886909e-01
3.01594704e-01
2.57520604e+00
-4.92587000e-01
-6.36232674e-01
-4.59125042e-01
1.61555916e-01
-1.30557394e+00
-1.00862885e+00
-1.57407498e+00
6.81141317e-01
-1.21353142e-01
2.93849587e-01
-2.00522876e+00
6.22802079e-01
-1.61225736e+00
-4.43270504e-02
4.14274842e-01
1.15708995e+00
2.07115248e-01
-6.73969567e-01
9.27484035e-02
3.33302021e-01
-1.67640126e+00
-5.00892282e-01
8.56920660e-01
1.11669458e-01
-8.88729334e-01
-5.48041344e-01
1.36539197e+00
-1.20961571e+00
6.70403719e-01
1.51112425e+00
1.30297041e+00
1.09212959e+00
5.20273089e-01
-1.30831313e+00
-4.62133288e-01
4.63467479e-01
5.57585731e-02
-1.06488442e+00
-1.39877999e+00
1.57637727e+00
1.41803408e+00
-1.02386284e+00
1.99511755e+00
-9.10595477e-01
-2.94409156e-01
6.60749495e-01
-1.60377324e+00
7.93340325e-01
-1.72465932e+00
3.80663604e-01
4.88862187e-01
-6.02357984e-02
3.95126849e-01
4.84596997e-01
4.25929397e-01
3.29907656e+00
1.45345271e+00
1.44468382e-01
-9.28520262e-01
-2.37061548e+00
7.54408419e-01
1.06707561e+00
-5.84265515e-02
6.05204642e-01
2.69672900e-01
-5.86712599e-01
1.00364077e+00
1.78163528e-01
-1.36248022e-01
9.26555634e-01
4.17874277e-01
7.86933959e-01
1.18338895e+00
4.33959104e-02
-3.54095250e-01
-1.20988345e+00
-1.75245905e+00
-1.16534996e+00
8.04388344e-01
2.72320479e-01
-1.21684752e-01
-2.62717873e-01
-7.19765663e-01
-9.26418543e-01
8.74649286e-01
1.43114197e+00
-5.02583981e-01
-6.05956852e-01
5.31937599e-01
3.30422312e-01
1.68527496e+00
7.07125485e-01
8.28001261e-01
-9.02195513e-01
1.34310320e-01
8.17631781e-01
-2.40483508e-02
-2.14710131e-01
8.96903500e-02
-6.27138615e-01
9.92622674e-01
7.91698039e-01
-1.43030003e-01
8.46385419e-01
6.12173155e-02
9.39679593e-02
-7.79838443e-01
1.01473324e-01
-4.00060654e-01
-1.82485715e-01
1.37737393e+00
-3.13256264e-01
-6.73141539e-01
-1.25992393e+00
-1.14487755e+00
9.33300018e-01
-6.63623273e-01
-1.44083846e+00
2.64224440e-01
2.01602578e+00
7.01840341e-01
-2.20215607e+00
2.72678256e-01
6.91628158e-01
-2.99624062e+00
2.88200140e-01
-3.17727000e-01
-1.13868785e+00
1.43713295e+00
2.17063355e+00
-7.88295150e-01
5.18513262e-01
-1.28089440e+00
1.97938383e-02
-2.37866545e+00
-5.57023585e-01
3.35229635e-01
-1.62117803e+00
3.23491186e-01
-1.09921813e+00
-6.53659031e-02
6.32686317e-01
-1.58623683e+00
1.42038190e+00
-2.39889503e+00
-9.31773305e-01
-5.63185096e-01
3.84849817e-01
-1.63730586e+00
-3.49309504e-01
-1.67980239e-01
1.42669845e+00
-5.86830914e-01
-8.14688027e-01
-8.54992941e-02
-5.23097634e-01
-1.27634263e+00
1.03195143e+00
-1.63294777e-01
-1.07437861e+00
-9.88454998e-01
-5.37175775e-01
5.58102667e-01
-4.01161999e-01
2.97628492e-01
4.71615702e-01
5.55456161e-01
-6.93623185e-01
5.88801265e-01
3.05627286e-03
2.24516708e-02
1.34543747e-01
-1.45819917e-01
-1.06730437e+00
1.58104420e+00
-9.08194363e-01
-3.70951504e-01
1.38786184e-02
-8.86397421e-01
8.12690556e-01
2.17554879e+00
4.34273690e-01
-8.34625840e-01
1.85914326e+00
1.14427674e+00
1.21807134e+00
-4.47845221e-01
-4.60148394e-01
4.52992558e-01
-2.63898700e-01
-1.63805231e-01
5.56189656e-01
1.06968218e-02
8.09799075e-01
7.17361510e-01
1.19707716e+00
8.44091475e-01
2.94136345e-01
-1.56986976e+00
-1.83198702e+00
-7.08730578e-01
3.31311315e-01
-9.11032677e-01
3.08681822e+00
1.46769381e+00
5.58718204e-01
1.29747736e+00
-1.90720177e+00
6.97470248e-01
-2.29139596e-01
1.39947498e+00
8.47714067e-01
1.53888369e+00
1.50402880e+00
1.08643949e+00
2.53713071e-01
-1.29240799e+00
8.08543921e-01
-1.33851254e+00
1.30750620e+00
-2.05882215e+00
6.86719656e-01
-1.87160730e+00
-1.45294178e+00
1.04334247e+00
-2.92002648e-01
-1.13901103e+00
-6.94277823e-01
6.22046530e-01
-6.66300416e-01
-2.95954850e-03
2.81354755e-01
3.48366320e-01
-6.12976015e-01
-7.36012816e-01
-8.39663506e-01
-1.45224130e+00
-1.01181054e+00
-1.31825149e+00
-3.65695536e-01
-7.33789444e-01
4.61560816e-01
2.65122843e+00
1.67399988e-01
-2.07247257e-01
2.01851320e+00
1.61373639e+00
1.03898931e+00
-8.76349509e-01
1.28634036e+00
1.33437383e+00
-1.38940573e+00
-6.76878154e-01
-1.30749369e+00
-1.06113458e+00
4.18439806e-01
-4.10867071e+00
-1.19254899e+00
1.30217588e+00
3.97577614e-01
2.96484828e-01
-9.21723962e-01
-4.98453647e-01
1.37769222e+00
1.02903736e+00
3.62466760e-02
-7.49191105e-01
7.29608070e-03
-4.25726622e-01
2.40309572e+00
-6.92734122e-01
1.83421329e-01
-1.81945181e+00
6.31293535e-01
-6.74347341e-01
6.74776196e-01
2.20582342e+00
1.79233682e+00
1.15548182e+00
1.05366504e+00
-1.89093554e+00
-7.83681154e-01
-3.16360056e-01
8.77092928e-02
-2.24955630e+00
-5.55291653e-01
-1.49113071e+00
-1.93899643e+00
2.38327241e+00
-1.24017560e+00
-5.48839867e-01
1.54729471e-01
1.37195182e+00
-1.71126783e+00
6.98372662e-01
-8.95217299e-01
-1.43785834e-01
5.40362895e-01
-1.15880001e+00
-1.87610960e+00
-1.32035089e+00
1.49227515e-01
7.07005441e-01
-1.06680751e+00
-3.07478309e-01
1.18211232e-01
-8.90996516e-01
-1.88786662e+00
-1.46980917e+00
9.94765759e-02
-1.04323888e+00
9.51343834e-01
-6.71007156e-01
1.02521813e+00
4.25156891e-01
1.21233535e+00
5.35397530e-01
9.06114399e-01
2.35622395e-02
-1.29080856e+00
-7.00377405e-01
-5.77630959e-02
-6.08124614e-01
1.22881532e+00
-1.93155065e-01
2.43044347e-01
-1.18758738e+00
-5.18824279e-01
4.24822181e-01
8.33755910e-01
-6.04002297e-01
5.88125825e-01
-4.43567574e-01
9.54355836e-01
-2.35931277e+00
7.93871999e-01
-8.02284420e-01
1.02671884e-01
-6.51662469e-01
6.52238369e-01
-1.62840533e+00
7.47307360e-01
4.22267854e-01
2.88038403e-01
1.72735918e+00
-6.47330165e-01
-3.85866240e-02
2.04391092e-01
-7.29267478e-01
-2.51998633e-01
-2.45157623e+00
-4.67670798e-01
1.30375603e-03
-5.52344143e-01
-1.11760294e+00
9.18228269e-01
1.32519877e+00
6.66820943e-01
2.43534818e-01
1.02263093e+00
-1.88160706e+00
3.89012903e-01
4.80056763e-01
1.66657782e+00
8.87139380e-01
2.61407465e-01
4.82759804e-01
4.40981448e-01
2.79034197e-01
-1.86522245e+00
6.25844538e-01
1.26485729e+00
-4.56073672e-01
4.77054045e-02
-2.85446346e-01
3.33650172e-01
9.64947417e-02
-2.38563752e+00
-1.00855434e+00
-9.35832500e-01
2.15188459e-01
-2.32013360e-01
-2.00742215e-01
-1.26261997e+00
1.70254457e+00
-1.49090195e+00
-7.26166785e-01
-7.22807586e-01
2.97914267e-01
3.75207335e-01
-1.32314515e+00
3.21190774e-01
-1.42432940e+00
1.17880501e-01
1.00203955e+00
-1.21007812e+00
-7.38142133e-01
-4.21865016e-01
2.36229360e-01
-1.17611861e+00
2.10977554e-01
-1.16686851e-01
-6.55942082e-01
-3.77323665e-02
-1.26626945e+00
9.94638145e-01
-1.10022628e+00
2.05511134e-02
-2.21460804e-01
1.17797917e-02
3.27257484e-01
-4.54442650e-01
-3.57547581e-01
-1.68128240e+00
-3.31988513e-01
3.52778256e-01
1.91850650e+00
-2.98443109e-01
-1.41408026e+00
-7.29083121e-01
-6.85222924e-01
-1.42443085e+00
-5.56677818e-01
5.84507465e-01
-4.14962620e-01
1.99234560e-01
-9.05094445e-01
1.51940191e+00
9.25460577e-01
1.91368318e+00
9.74077046e-01
-5.66777408e-01
1.75061867e-01
1.13928592e+00
1.57913342e-01
-1.12724316e+00
1.38169956e+00
-1.03028655e+00
-2.07104027e-01
-1.29157376e+00
3.40329289e-01
-3.40069234e-01
3.66587192e-02
-1.58207870e+00
1.09669936e+00
1.88878208e-01
1.34233940e+00
-7.78502882e-01
-1.44923663e+00
1.35217047e+00
1.68177962e+00
1.79761767e+00
-3.57531935e-01
1.81738421e-01
-3.04435432e-01
3.12293530e-01
-1.48656237e+00
-9.24601018e-01
8.87360752e-01
1.15218870e-01
-2.73520350e-01
3.20994210e+00
-1.28822887e+00
1.09739590e+00
3.52847099e-01
3.27022046e-01
3.19866389e-01
1.73786390e+00
-8.77349854e-01
-1.93456149e+00
-6.24629892e-02
6.40900016e-01
-2.16230780e-01
9.98692691e-01
-4.62311238e-01
-1.56467348e-01
-3.41992110e-01
2.00384572e-01
4.00102079e-01
5.24808988e-02
-2.09504700e+00
2.78705776e-01
-1.14562845e+00
-8.99647117e-01
-7.46623516e-01
-8.92038584e-01
3.14378470e-01
1.00446260e+00
-1.39667475e+00
-2.84218431e-01
9.00084972e-01
8.12227488e-01
1.82057774e+00
3.60305548e-01
-1.29249632e+00
3.19806457e-01
-7.25105643e-01
-2.76428133e-01
-5.60094774e-01
-1.61540556e+00
2.97744513e-01
-5.27223229e-01
9.77578282e-01
1.53920963e-01
8.17408204e-01
1.23106408e+00
8.06283653e-01
8.93900752e-01
4.49242741e-02
-3.59541833e-01
-1.02559343e-01
-1.07522935e-01
-1.42165589e+00
-3.75097543e-01
-1.28779244e+00
-1.28134739e+00
4.51229930e-01
3.50891650e-01
1.26007004e-02
4.93649207e-02
1.07922840e+00
8.64996552e-01
1.02841747e+00
-7.49044776e-01
2.90059336e-02
1.01312041e+00
5.40039718e-01
-2.26619747e-03
-8.20202827e-01
-4.77280408e-01
2.08290100e+00
2.69419742e+00
8.77997398e-01
-6.76851347e-02
-9.04872656e-01
-1.85983348e+00
2.54186243e-01
7.28145123e-01
3.33106637e-01
8.14804196e-01
-2.16629004e+00
-4.60547626e-01
-1.46310568e+00
9.55024421e-01
2.29337263e+00
1.68766707e-01
-1.54146469e+00
2.54712868e+00
8.47899616e-01
6.51527941e-01
-2.17043504e-01
2.46444479e-01
2.58683980e-01
1.85516119e+00
6.76408112e-01
3.14747274e-01
-3.05391997e-01
1.22530627e+00
4.43022937e-01
-1.21006072e+00
1.82110393e+00
5.58250397e-02
1.29322040e+00
3.25387090e-01
5.22090435e-01
8.88476193e-01
6.59744382e-01
1.28899384e+00
1.21137297e+00
1.32613921e+00
1.27166763e-01
-9.74217534e-01
-1.07602882e+00
-1.18059002e-01
8.00784767e-01
9.86308813e-01
7.73590386e-01
8.86129797e-01
-2.96477228e-02
-1.66918159e+00
9.99834985e-02
-1.71774149e+00
-3.12722296e-01
-4.73700523e-01
1.87502414e-01
5.37160754e-01
1.70425785e+00
-5.05828023e-01
1.35627925e+00
-6.72579885e-01
1.80769646e+00
1.28133476e+00
-1.29486012e+00
-9.56031084e-01
-2.73567975e-01
2.37476885e-01
-1.08295763e+00
-1.80778849e+00
5.60070634e-01
-1.69689171e-02
-1.40526032e+00
9.44095731e-01
8.94609153e-01
6.39376879e-01
5.25019765e-01
-3.21785092e-01
4.51517940e-01
9.62468028e-01
1.16499770e+00
2.02897954e+00
-5.45007288e-02
3.16450864e-01
-5.68600118e-01
1.88041925e+00
9.24603548e-04
-5.78380764e-01
-1.33423018e+00
-6.38666272e-01
-9.14259911e-01
2.26740551e+00
2.27036133e-01
1.22088239e-01
3.53090733e-01
-1.75663948e+00
-9.54483151e-01
1.64965525e-01
-1.78302616e-01
9.00644004e-01
-3.61258745e-01
-1.50561237e+00
-8.38890299e-02
-3.65917295e-01
-7.75817275e-01
-8.34217727e-01
-3.07941288e-01
-4.39498693e-01
9.25659299e-01
-6.06837869e-01
-2.31626725e+00
2.89125037e+00
-6.81201577e-01
1.22665668e+00
1.10280263e+00
9.69344676e-01
-8.96327049e-02
5.15231073e-01
2.04556632e+00
-1.44681478e+00
-1.40167654e+00
8.57177198e-01
9.30228889e-01
-5.78471413e-03
-1.25114024e+00
-2.63286978e-01
-9.82885540e-01
4.67153162e-01
-2.16101427e-02
1.04294705e+00
1.48835897e+00
3.46428663e-01
1.77139485e+00
8.13180625e-01
1.24233425e+00
-1.40987194e+00
-1.35964990e+00
-3.49571288e-01
-3.57692719e-01
-9.82506692e-01
4.32549149e-01
2.86762476e-01
-2.16327921e-01
5.31203076e-02
1.43951643e+00
2.98032284e-01
2.93490082e-01
-6.82456717e-02
-3.78649592e-01
9.25593019e-01
1.86109161e+00
9.92187321e-01
4.01547372e-01
-6.33800447e-01
-2.01756382e+00
2.36440495e-01
-1.16429830e+00
1.61836997e-01
7.12485790e-01
-9.39544797e-01
7.52573669e-01
-1.16195619e+00
8.32451224e-01
-6.49174154e-01
-1.97464854e-01
-1.02882826e+00
-9.82946008e-02
5.22691905e-01
1.44321239e+00
-2.34691128e-01
-4.12559770e-02
7.46991217e-01
1.06612451e-01
7.32472956e-01
2.32280278e+00
8.45845997e-01
-1.03546011e+00
9.99638200e-01
9.95231867e-01
-1.26819205e+00
-2.75701344e-01
1.49820650e+00
-4.93197739e-01
1.72106576e+00
4.32499915e-01
-3.76787692e-01
9.17911410e-01
7.28622913e-01
2.10682765e-01
8.93996835e-01
-3.51218730e-01
9.17855203e-01
4.94041860e-01
2.00195238e-01
1.79938757e+00
-1.54831076e+00
8.30481470e-01
-3.42156857e-01
8.73137593e-01
3.21930468e-01
8.29861283e-01
-4.73247677e-01
1.69736660e+00
-3.33099574e-01
2.77116954e-01
-1.06566453e+00
-6.08954906e-01
2.84173512e+00
-3.15818071e-01
4.43647593e-01
-5.84622860e-01
-3.51572007e-01
1.86431801e+00
1.89831313e-02
7.72625387e-01
-4.02201563e-02
-9.20169234e-01
2.68585328e-02
-1.84063733e+00
1.46506011e-01
-1.03036851e-01
-1.15250254e+00
1.06977105e+00
-8.51249218e-01
-1.08185315e+00
-1.30949509e+00
-8.49762976e-01
3.29147220e-01
-5.84840000e-01
8.93726528e-01
6.45145416e-01
-1.84250444e-01
6.72507584e-02
-1.52615929e+00
6.11640751e-01
4.84556198e-01
-2.39899635e+00
-7.22313344e-01
-1.32755435e+00
9.75043654e-01
3.90283227e-01
3.50136995e-01
-1.42508554e+00
-9.38882768e-01
2.64992148e-01
3.73676091e-01
6.52351141e-01
4.87465113e-01
-1.72513342e+00
-4.13140863e-01
-1.70745492e+00
-1.63358545e+00
-1.05105378e-01
-8.95145297e-01
1.86243534e+00
-1.81589258e+00
-5.67632437e-01
-8.24667990e-01
-1.11762381e+00
1.13805890e+00
4.15118001e-02
-1.37645900e+00
-1.19505119e+00
2.03181076e+00
1.90671086e+00
9.96505141e-01
2.24947286e+00
-9.22354221e-01
-9.36979949e-01
1.20683277e+00
6.03276253e-01
7.07709908e-01
6.09269917e-01
2.07979921e-02
1.55952668e+00
5.28810978e-01
1.23347616e+00
4.40106690e-01
7.89156705e-02
-1.23806320e-01
-1.30153573e+00
1.23821533e+00
2.80957371e-01
-2.92136168e+00
6.53451741e-01
-4.19670284e-01
-8.74704480e-01
2.04542428e-01
8.47804695e-02
7.55132455e-03
-1.78667679e-01
2.29987192e+00
1.53842723e+00
-1.52575731e+00
-5.49969196e-01
-7.69246757e-01
-1.01561964e+00
-2.22044781e-01
1.38563111e-01
-1.53938854e+00
1.99943221e+00
5.06931663e-01
7.08082616e-01
1.91507244e+00
4.14591700e-01
4.53643471e-01
-1.47916913e+00
5.43554306e-01
2.63765752e-01
1.54181981e+00
-3.96623850e-01
-5.83078682e-01
-1.51349556e+00
7.89344370e-01
3.49632576e-02
6.39603198e-01
-1.07746196e+00
1.60700119e+00
6.86299801e-01
1.48104861e-01
7.46772766e-01
-7.59129584e-01
4.70954329e-01
5.22643924e-01
1.65089831e-01
-8.82661104e-01
5.10785401e-01
7.57730186e-01
-5.84548831e-01
-2.00915456e+00
5.26202142e-01
-4.40868914e-01
6.66585088e-01
1.90225446e+00
7.80128658e-01
-9.80343640e-01
-6.17978692e-01
-2.32986882e-01
1.65397435e-01
-1.47581935e+00
3.32210332e-01
8.14443290e-01
1.48731077e+00
2.51221204e+00
1.66366503e-01
1.47776568e+00
1.04604936e+00
-1.75956166e+00
1.59585690e+00
-1.42484081e+00
5.48172832e-01
-4.57802415e-02
-9.60933626e-01
1.73888707e+00
1.79305589e+00
-1.83045626e-01
1.96920919e+00
2.22048447e-01
2.26112771e+00
-1.44295323e+00
-1.22566491e-01
6.70797408e-01
5.44575453e-01
-2.60501266e-01
-1.01210332e+00
4.73391473e-01
-1.33102846e+00
7.31471658e-01
-5.24017274e-01
9.33810771e-01
-4.34658170e-01
-8.43373001e-01
-5.54711223e-01
1.28826588e-01
-1.58312690e+00
-4.97614682e-01
-3.62441629e-01
-2.58595228e+00
5.75853169e-01
4.61865664e-01
1.63710463e+00
-1.27319396e+00
-1.63411152e+00
-7.21064389e-01
-1.31612682e+00
-1.04460311e+00
-4.13737059e-01
-1.03078246e+00
-1.63735414e+00
-6.21856987e-01
-2.49756646e+00
-9.61045623e-01
5.11577390e-02
-5.95740557e-01
-2.60604024e-02
-1.40395391e+00
-8.83489490e-01
2.28916216e+00
-1.08875108e+00
1.46826255e+00
-1.48635435e+00
-7.00499535e-01
-7.72934631e-02
4.11982745e-01
-2.25466561e+00
6.26688153e-02
4.18465547e-02
-2.04895377e+00
-5.65036535e-01
-5.37289530e-02
-1.50297439e+00
1.80090654e+00
-8.76936197e-01
-9.10588920e-01
1.94943488e-01
1.14797008e+00
-1.90789141e-02
-1.00985277e+00
5.06484509e-01
-1.17049694e+00
5.30557096e-01
-6.12842023e-01
3.86447012e-01
3.55910808e-01
-3.44532505e-02
-1.42195535e+00
-9.54965055e-01
3.94243896e-01
-1.77326426e-02
1.46631193e+00
1.62880749e-01
-1.56292474e+00
-1.66613266e-01
-1.43113506e+00
-1.13582432e+00
-1.27545369e+00
-4.07063574e-01
-8.65618527e-01
1.33114231e+00
-1.21930087e+00
-7.29367971e-01
4.74572927e-01
1.30834043e+00
-1.03389478e+00
-9.05995786e-01
-1.87772083e+00
8.42409909e-01
-4.87806857e-01
8.99838507e-01
-2.70837486e-01
6.80890858e-01
-8.60693008e-02
-1.13326824e+00
2.82772213e-01
1.85977995e+00
-5.92112064e-01
7.57462025e-01
8.97172272e-01
3.89418632e-01
-5.18006206e-01
-4.64261919e-01
8.07028830e-01
7.56940722e-01
3.63797732e-02
-1.13146758e+00
5.58800101e-01
7.53616095e-01
2.71581441e-01
-2.15182877e+00
-7.39897490e-01
8.44684601e-01
6.35399967e-02
-1.39518178e+00
-1.52208066e+00
1.20783043e+00
1.11942136e+00
1.07642598e-01
6.17128491e-01
-6.05266750e-01
-5.84280670e-01
6.80105329e-01
9.97894704e-01
1.68633687e+00
-7.02935398e-01
7.25842953e-01
9.69792128e-01
2.04825926e+00
-1.65464771e+00
-4.86654967e-01
1.20243335e+00
3.64174545e-01
-9.52244878e-01
1.69033945e-01
-2.12743387e-01
2.08328688e-03
3.70005369e-01
-7.26781070e-01
5.57001770e-01
8.90601575e-01
-1.12288237e+00
-6.25437558e-01
7.75239393e-02
1.12756217e+00
1.90130460e+00
1.31789827e+00
2.30485892e+00
5.28751493e-01
1.77894741e-01
-6.17022634e-01
1.58995903e+00
1.90598631e+00
-6.07724309e-01
2.12290064e-02
2.95995057e-01
1.42072010e+00
1.53495550e+00
-2.88359642e+00
2.09320605e-01
3.44808221e-01
1.00133610e+00
4.55569714e-01
4.84975636e-01
-3.68509479e-02
9.89308178e-01
7.19824791e-01
-1.72203267e+00
1.41231883e+00
1.56317580e+00
-6.70649052e-01
-1.01611269e+00
4.92982775e-01
7.64667332e-01
4.29450303e-01
9.19756532e-01
-3.64688963e-01
-1.62234485e-01
1.03812802e+00
-2.19139981e+00
1.04373527e+00
-7.28499651e-01
5.71562767e-01
8.59242201e-01
9.26194191e-01
-5.67184269e-01
-1.42945692e-01
-6.00687921e-01
-7.46833235e-02
-1.57528341e+00
2.77677625e-01
1.63617945e+00
6.16926312e-01
-1.45225942e+00
-1.06771104e-01
4.60353553e-01
-9.18288767e-01
6.34497225e-01
1.03110028e-02
1.89524674e+00
5.67646027e-01
-1.06982537e-01
1.68841988e-01
1.19462073e+00
-5.11836886e-01
2.90504485e-01
1.34865451e+00
2.12418556e-01
8.08113098e-01
9.62195396e-01
-1.78190917e-01
8.98519278e-01
1.82193172e+00
4.65549171e-01
2.00435370e-01
1.19374168e+00
7.11388648e-01
1.27122474e+00
6.19653285e-01
-3.38841289e-01
-6.38305366e-01
-7.86291659e-01
-1.27278101e+00
-5.37999608e-02
-1.20297611e-01
1.14197560e-01
3.48305225e-01
1.71567738e+00
-2.55593151e-01
-9.77648273e-02
1.66194785e+00
-2.10538674e-02
-1.25857985e+00
-1.25365555e+00
1.10786140e+00
1.85612345e+00
-8.64781380e-01
2.06843519e+00
7.98488498e-01
1.59506023e+00
2.23962688e+00
1.40000844e+00
6.22214258e-01
-1.08554280e+00
-1.50242376e+00
5.94396591e-01
-1.33438766e+00
-3.14496279e-01
1.36984825e+00
-1.34026498e-01
1.48970830e+00
-9.21328127e-01
-6.26806378e-01
3.16808164e-01
-3.15958232e-01
1.06618106e+00
-1.31324065e+00
9.01796147e-02
6.42781377e-01
2.41856837e+00
-9.03141677e-01
1.00556791e+00
1.05031407e+00
-2.14195892e-01
-5.12273729e-01
-6.00029111e-01
-1.69889659e-01
7.66567230e-01
1.71086758e-01
6.63662195e-01
-1.98132452e-02
-5.03761172e-01
4.14104730e-01
-1.39947906e-01
-1.45276105e+00
5.55539370e-01
-1.44952059e+00
5.01465090e-02
-5.39127946e-01
1.22158669e-01
-1.29076108e-01
2.08831951e-01
-1.31965056e-01
-9.41986561e-01
-2.08211017e+00
-3.06436032e-01
-1.99077237e+00
1.04845762e+00
-1.41940191e-01
-7.54137099e-01
2.66010475e+00
-2.74691612e-01
-1.60834455e+00
-1.75716627e+00
-8.16041708e-01
-1.07603669e+00
4.97360826e-02
-1.65965110e-01
5.24229050e-01
-1.86249506e+00
-6.20637178e-01
-1.36072767e+00
-1.11268246e+00
-7.08122849e-01
-1.64380550e-01
6.19629622e-02
-1.03972805e+00
-1.83364964e+00
-3.23746875e-02
1.66623294e-01
-1.03812587e+00
-2.15530187e-01
7.85717726e-01
-7.23591387e-01
6.48927033e-01
6.20976448e-01
2.24496320e-01
6.62688494e-01
-7.01742589e-01
1.13784470e-01
5.84273934e-01
3.95634204e-01
-2.17006639e-01
2.34534472e-01
-1.53398287e+00
8.85702372e-01
-6.00590706e-01
-1.24931312e+00
6.25595391e-01
1.20311501e-02
2.49536014e+00
-4.87687737e-01
-1.22690189e+00
-7.39359483e-02
-2.86925524e-01
2.03623921e-01
-1.64121538e-01
-1.64523590e+00
-1.51979232e+00
1.29512453e+00
9.89816725e-01
5.20492136e-01
-1.04588652e+00
-4.12925184e-01
5.47877550e-01
7.03038692e-01
-1.38311875e+00
-5.23890078e-01
6.36726677e-01
-1.79676898e-02
3.19277108e-01
-1.00832152e+00
4.47842449e-01
1.74568012e-01
-1.22392511e+00
8.10022466e-03
-1.95843554e+00
6.26277566e-01
3.71161073e-01
-1.13839829e+00
-1.87470186e+00
3.71787429e-01
-1.64257176e-02
-2.66471803e-01
1.92047536e-01
-3.98708045e-01
-1.49033296e+00
-1.00303125e+00
-3.48239124e-01
-5.08082509e-01
-1.44973353e-01
1.64798588e-01
2.35228166e-01
1.43303263e+00
-3.32962573e-01
-1.62884915e+00
7.24255025e-01
-9.76446569e-01
-1.26898813e+00
-1.30479181e+00
1.04299438e+00
3.70501310e-01
1.06360328e+00
-1.71918869e-01
8.60892296e-01
2.65107483e-01
-5.42849958e-01
1.42367840e+00
1.11786580e+00
-4.86564398e-01
7.61225745e-02
-2.53596067e+00
2.99160659e-01
4.27250385e-01
2.07617462e-01
-2.41553575e-01
-4.02342051e-01
8.44926953e-01
6.19773269e-01
1.10433757e+00
-3.08734804e-01
1.27332926e+00
-2.50791216e+00
-9.74105954e-01
9.56177533e-01
-4.00501639e-01
1.08703423e+00
-1.24822295e+00
1.17291637e-01
6.01988494e-01
-1.01994574e-01
1.23572624e+00
7.42010117e-01
-1.51047516e+00
-3.71594392e-02
-1.43138841e-01
1.52263284e-01
4.97377485e-01
-5.47578216e-01
-1.16546847e-01
-1.60544440e-01
8.97516727e-01
7.03097939e-01
-1.57412732e+00
-1.14885785e-01
1.61875919e-01
2.68685579e-01
1.21357985e-01
-1.04752314e+00
-8.61935437e-01
7.21075892e-01
-1.37898505e+00
-3.12018573e-01
8.91520619e-01
-2.36410975e+00
-1.98576295e+00
-1.53647876e+00
1.62406099e+00
2.14176387e-01
4.00418401e-01
9.78319705e-01
5.44516206e-01
2.34704912e-02
-8.73047784e-02
1.52103949e+00
5.48545539e-01
3.62319469e-01
1.57614756e+00
-3.63105088e-01
-8.59010033e-03
1.35737288e+00
1.82776034e-01
2.03585491e-01
4.54572499e-01
2.53839254e-01
9.37902093e-01
1.20110583e+00
-1.88805020e+00
8.07615459e-01
4.52140868e-01
-8.96224473e-03
-4.85789418e-01
6.22675061e-01
2.46655798e+00
-9.05952573e-01
2.24242020e+00
8.65106702e-01
-1.27079794e-02
-2.26295829e-01
8.60749632e-02
1.23803759e+00
1.73682883e-01
3.27648282e-01
-7.99651086e-01
4.48055208e-01
9.61619079e-01
-5.64148247e-01
1.01223993e+00
-2.47381181e-01
-7.54249215e-01
-9.20998901e-02
2.15476722e-01
-1.14727862e-01
1.94233805e-01
-1.66108894e+00
-1.00894141e+00
-1.83704078e-01
3.75765830e-01
-1.04749453e+00
-7.38680363e-01
-4.00477558e-01
-1.12322509e+00
6.51864529e-01
-7.14477450e-02
3.42560023e-01
7.15337217e-01
-1.49383569e+00
2.01285869e-01
1.43524671e+00
1.11838944e-01
1.92927444e+00
1.80918646e+00
3.05782557e-01
1.13443518e+00
-6.73943102e-01
-4.62449729e-01
-1.37922418e+00
-7.72043586e-01
5.14079094e-01
-1.32477939e+00
-2.81685203e-01
1.65644437e-01
-2.20677495e+00
1.79220116e+00
5.88605940e-01
-4.15362954e-01
-8.66754949e-02
-9.14516389e-01
-2.85182029e-01
4.45246771e-02
1.41077018e+00
1.18526852e+00
3.40744972e-01
-8.42243880e-02
1.10685325e+00
-1.58577764e+00
-1.23882818e+00
-1.75379694e-01
2.10328147e-01
2.03380919e+00
-1.13390052e+00
1.98224902e-01
3.99558067e-01
7.95434415e-01
1.41846907e+00
9.88297343e-01
-1.13468492e+00
-1.16037691e+00
-5.09292543e-01
-1.35837090e+00
-3.01047303e-02
-6.01973772e-01
-1.65798053e-01
-9.24638033e-01
1.35717690e+00
-1.68241709e-01
-1.04075587e+00
1.16011667e+00
1.18459046e+00
1.65775433e-01
-1.16818929e+00
-3.92317176e-02
-1.90636945e+00
-1.09303224e+00
-8.35596383e-01
1.06303327e-01
-1.64593554e+00
1.80349201e-01
-4.20142174e-01
9.45837498e-01
-1.37908590e+00
5.86930625e-02
5.80632985e-01
3.48312616e-01
-9.93477404e-01
1.51872134e+00
1.37531054e+00
1.19155669e+00
8.70881379e-01
9.30649266e-02
1.48082241e-01
8.23460221e-01
7.92410076e-01
3.06400895e-01
-6.68810189e-01
1.28102684e+00
2.92980880e-01
4.12384808e-01
8.57828677e-01
-1.23803735e+00
-1.44127357e+00
-1.13382719e-01
-2.06866682e-01
-2.70462424e-01
-1.17659485e+00
-2.46727657e+00
2.16105294e+00
1.33568263e+00
1.20484376e+00
-1.34930837e+00
-1.24525154e+00
-1.00942627e-01
6.68673038e-01
5.06166458e-01
-1.46390200e+00
5.91983367e-03
-6.53198242e-01
-7.95831203e-01
-1.42806852e+00
6.97764277e-01
6.82993412e-01
9.90940332e-02
-1.30021644e+00
2.33502674e+00
2.23387408e+00
1.04155414e-01
-1.12144637e+00
-1.02567720e+00
-1.68399799e+00
-8.15815985e-01
1.09076869e+00
-1.00838208e+00
-9.04869914e-01
-4.38409775e-01
3.43842328e-01
-6.54845119e-01
3.34321052e-01
-1.50275021e-03
8.39285493e-01
3.24180156e-01
2.82181323e-01
-1.39506280e+00
1.93957484e+00
-1.32499591e-01
-1.28874099e+00
1.06623781e+00
3.56717296e-02
-2.01740995e-01
1.98332116e-01
-2.77677059e-01
3.38301212e-01
-4.23004925e-01
-1.57750201e+00
1.60822797e+00
4.75202352e-02
6.36853650e-02
9.56893742e-01
1.33354640e+00
-1.07550287e+00
1.88319075e+00
7.23781884e-01
1.70024469e-01
4.16508168e-02
7.40291953e-01
4.84354913e-01
1.41186386e-01
-6.50123894e-01
6.84025660e-02
-1.88689068e-01
8.40414405e-01
6.46101952e-01
-9.55564022e-01
1.64169431e+00
-6.66993976e-01
-3.18573862e-01
-1.07321179e+00
-2.40845799e-01
-7.03717530e-01
-9.08700943e-01
4.51124698e-01
1.71512589e-01
-8.03496361e-01
5.42603374e-01
9.70314324e-01
-1.35732543e+00
2.10459173e-01
-1.08932185e+00
-5.55617511e-01
1.11155879e+00
-2.17182487e-01
-2.94471890e-01
-6.54446542e-01
2.06404813e-02
3.92796665e-01
-8.34898293e-01
-1.65598774e+00
8.57966125e-01
-1.65900159e+00
6.36887670e-01
-1.11622977e+00
4.50210959e-01
-2.25002074e+00
1.39451694e+00
7.87891269e-01
-1.86570585e-01
4.11721200e-01
6.29201472e-01
4.75232720e-01
-2.97154784e-01
-3.79380137e-02
-2.03953773e-01
-5.28768837e-01
9.73907888e-01
2.81992733e-01
1.35764825e+00
-2.36029893e-01
5.50692715e-02
4.64917153e-01
1.12363100e+00
8.07591200e-01
-2.44873405e+00
1.67836523e+00
1.28221488e+00
-2.40089595e-02
1.16686467e-02
-2.69443423e-01
1.10580909e+00
-7.21740603e-01
-2.23024026e-01
7.15233624e-01
1.62603199e+00
-8.87996495e-01
1.09332085e+00
-5.42325675e-01
-3.70663136e-01
-2.68136263e-01
1.46681905e+00
1.48670363e+00
-4.99125905e-02
-7.21895456e-01
-4.16364074e-02
-9.98457313e-01
-1.14116848e+00
4.83498544e-01
6.95360959e-01
-9.35225248e-01
-1.52321172e+00
4.33105439e-01
9.90611732e-01
-3.91667813e-01
9.96521950e-01
-1.33166122e+00
1.14912534e+00
-6.64133787e-01
-2.36082047e-01
-1.39113891e+00
-5.17261028e-01
1.26808453e+00
-5.45775414e-01
1.02358258e+00
2.60610431e-01
-5.13728142e-01
4.16427016e-01
-1.11027753e+00
9.47001934e-01
4.23231274e-01
-9.21024203e-01
2.79114544e-02
6.06598496e-01
-1.63157070e+00
-7.12395132e-01
4.83890027e-01
7.10959315e-01
1.82330120e+00
2.54426384e+00
6.61234856e-01
9.37612653e-01
-6.57732904e-01
-6.15228666e-03
-1.27045706e-01
-8.48594904e-01
1.21553779e+00
2.47533962e-01
4.91818815e-01
-2.62236023e+00
-1.27790892e+00
-6.57339543e-02
4.06082779e-01
2.20709249e-01
1.61881238e-01
1.08334231e+00
-1.04120662e-02
-7.30668247e-01
6.92191005e-01
-5.42061999e-02
6.81955338e-01
-5.81303596e-01
-2.94328600e-01
7.78126344e-03
-1.02280369e-02
6.47217751e-01
-5.57173729e-01
1.26820707e+00
1.89454526e-01
1.31309557e+00
4.24933732e-02
7.97928348e-02
1.61910191e-01
-6.03096724e-01
-9.33208913e-02
1.25342822e+00
-2.65081906e+00
-1.73153490e-01
-3.09441596e-01
-1.37157023e+00
3.53892833e-01
-8.47236216e-02
-4.78796035e-01
-9.58855689e-01
-4.29213829e-02
-5.58583736e-01
-1.41434920e+00
-2.74376631e+00
1.41944897e+00
1.33186293e+00
-5.48420489e-01
3.14151123e-02
-6.19241774e-01
-1.73060453e+00
9.72563624e-01
-9.85615611e-01
-1.31119430e+00
-3.31881464e-01
-8.88563097e-01
7.83075631e-01
-3.82899135e-01
-8.24465334e-01
2.44293809e-02
-4.78657067e-01
1.12266111e+00
9.22489822e-01
1.08573294e+00
-5.37106097e-02
-6.95060730e-01
-4.42189664e-01
-3.26455265e-01
-8.50565553e-01
-3.09009105e-01
1.61136717e-01
1.17655587e+00
-4.39365178e-01
5.65022767e-01
5.39197981e-01
1.07561803e+00
7.01516747e-01
-1.51564538e+00
2.02437401e-01
1.62445068e-01
5.24484098e-01
-2.27483273e-01
-9.37114716e-01
1.32985365e+00
8.28927815e-01
5.74376285e-01
2.18337655e-01
-1.13637418e-01
-4.52035278e-01
-1.84744108e+00
-1.33250153e+00
1.83886099e+00
-4.33381408e-01
5.67048132e-01
-1.23777187e+00
-6.05327964e-01
-1.91108954e+00
1.05502117e+00
-6.46486044e-01
-8.92809689e-01
9.50040966e-02
1.64114761e+00
3.67406011e-01
5.02891004e-01
-1.40113187e+00
4.23946947e-01
-5.88599741e-01
-4.62732881e-01
-1.02299273e+00
-1.76865295e-01
4.52339321e-01
-5.69112837e-01
3.46348912e-01
-3.38318139e-01
2.53357649e+00
-2.61890602e+00
4.85544205e-01
5.41679442e-01
-1.10908675e+00
5.19596785e-03
5.53692281e-01
1.33397269e+00
-9.05171275e-01
9.86199439e-01
-1.61341512e+00
-1.75817871e+00
1.97603017e-01
-8.19814742e-01
-9.93545726e-02
1.41946244e+00
-2.19440246e+00
3.31542730e-01
7.92646050e-01
1.04668987e+00
-3.06279212e-01
1.23339415e+00
-1.17041337e+00
-1.21883988e+00
-1.41761638e-02
1.43203175e+00
-7.69111142e-02
3.59210372e-01
2.52152491e+00
-8.94677758e-01
1.97997689e+00
-1.17524040e+00
-1.50658101e-01
6.07931852e-01
5.21772206e-01
-7.50811249e-02
-1.83183181e+00
4.88429964e-01
2.62498760e+00
-8.36150944e-01
3.24240595e-01
-1.09504282e+00
7.96600461e-01
-8.10029209e-01
5.27055800e-01
3.21268320e-01
1.21038163e+00
-4.07430649e-01
2.79747188e-01
-4.63564157e-01
-5.06023645e-01
6.14843726e-01
2.66979605e-01
-1.80394650e+00
-5.70869744e-01
1.43169507e-01
-7.90412486e-01
-9.71133173e-01
2.75285304e-01
-6.75542414e-01
-1.27539229e+00
2.08199453e+00
4.52901632e-01
8.28860700e-01
1.28720939e+00
6.16777837e-01
-9.30641174e-01
-6.82237819e-02
-1.55731821e+00
2.10447192e-01
-1.01275706e+00
-1.30533135e+00
1.46370843e-01
-1.29130948e+00
-1.36910081e+00
-5.88506639e-01
-5.43735385e-01
-9.23113942e-01
1.60981131e+00
1.58619210e-02
5.96038580e-01
3.15880626e-01
-1.00472116e+00
-1.77512813e+00
-7.53222466e-01
1.50101352e+00
1.77895153e+00
6.07372105e-01
4.88640338e-01
1.39885831e+00
-1.15963328e+00
-1.48895121e+00
2.79997110e-01
-6.78475380e-01
-6.92881286e-01
2.01039529e+00
3.29001397e-01
-2.27866665e-01
-2.30416685e-01
-6.35107040e-01
-9.69514549e-01
-2.05114692e-01
-1.07585061e+00
-5.40049195e-01
-1.64682734e+00
-1.18794608e+00
5.03418624e-01
3.10187250e-01
-2.20626146e-01
1.20242190e+00
2.63344884e-01
1.31972313e+00
2.87383851e-02
-1.23414457e+00
5.38687594e-02
1.10992122e+00
-9.32707012e-01
-6.36349976e-01
-1.26531625e+00
-2.83274144e-01
-1.37410372e-01
6.49175704e-01
-1.66063547e-01
-9.43704173e-02
-1.74390942e-01
-3.27520132e+00
-5.69360368e-02
-2.66240025e+00
-4.53214020e-01
1.57936251e+00
-7.15134621e-01
-4.84048486e-01
7.06120074e-01
-5.14053643e-01
2.76120245e-01
1.25416470e+00
-1.22297347e+00
-2.22776905e-01
1.39008248e+00
-9.15898800e-01
-7.84134924e-01
-5.32806575e-01
-1.07478648e-01
-1.60313976e+00
-5.08828104e-01
2.63366342e-01
2.40426755e+00
-6.29743099e-01
-2.88727164e-01
-6.49626076e-01
-3.44306193e-02
2.38615483e-01
-1.38986099e+00
-6.11248910e-01
-1.41037667e+00
-1.66522586e+00
-5.09932637e-01
2.42508769e-01
1.25560117e+00
3.22953492e-01
1.55937180e-01
3.71884137e-01
4.37361673e-02
-1.34373641e+00
3.75508130e-01
-1.44110107e+00
-3.02204818e-01
7.00732827e-01
1.52758217e+00
8.23405981e-01
6.97542667e-01
-1.75223470e-01
4.07440841e-01
5.01071870e-01
-2.52562165e-01
-1.12567806e+00
4.59845901e-01
1.58757353e+00
-1.57198286e+00
1.47357118e+00
1.13344669e+00
-5.62957406e-01
3.68191510e-01
-6.55537397e-02
1.74198639e+00
3.47127646e-01
7.84584403e-01
6.71963394e-02
-1.21815681e+00
6.83259666e-01
-6.41030192e-01
5.46193957e-01
-1.28320682e+00
-5.55344224e-01
-4.84895229e-01
-1.39812148e+00
-7.73802161e-01
2.03777170e+00
8.78522038e-01
8.58981907e-01
7.07450360e-02
1.91228974e+00
3.43339205e-01
2.28983974e+00
1.46586776e-01
1.37294531e-01
-9.49008107e-01
-1.45272106e-01
1.40602028e+00
1.53698862e-01
1.65364402e-03
4.76480722e-02
-1.04969144e+00
-6.12724721e-01
7.36236811e-01
1.11896849e+00
-9.90809500e-01
-2.42226958e-01
-2.95494139e-01
-5.32436967e-01
1.42212832e+00
6.68539643e-01
-6.36513710e-01
-1.70308220e+00
6.58874214e-01
9.30605531e-01
-2.10718560e+00
-3.29674751e-01
-1.61693960e-01
-8.87131095e-01
-3.46210569e-01
-1.19804060e+00
5.89395821e-01
4.62694675e-01
1.31860673e+00
5.81301868e-01
4.65184480e-01
4.35119689e-01
-5.55426776e-01
2.13645482e+00
7.11580575e-01
-2.35172957e-01
2.03532314e+00
4.95785363e-02
-1.25593078e+00
-1.29006886e+00
-2.38676310e+00
4.69408751e-01
4.42817062e-01
-9.46478963e-01
-7.33499944e-01
8.86666834e-01
-2.83495247e-01
4.80495632e-01
-1.37613666e+00
-4.41329144e-02
-4.59503829e-01
-1.16746342e+00
-5.15831530e-01
-1.03893805e+00
5.72407007e-01
1.69099927e+00
-1.03071177e+00
-4.82829332e-01
-7.51624584e-01
-1.23476136e+00
1.34946778e-01
5.91439962e-01
1.43901408e-01
3.81735831e-01
2.76190341e-01
1.44635832e+00
-2.51489997e-01
4.88282852e-02
3.58787447e-01
1.90612495e+00
7.88557008e-02
4.05021906e-01
1.47519827e+00
7.82990158e-01
1.35039592e+00
1.16208577e+00
-5.73774576e-01
1.24569595e+00
-1.51074278e+00
-1.70460328e-01
2.64143229e-01
2.43260652e-01
-3.09410930e-01
7.72570491e-01
2.61109680e-01
9.48725104e-01
5.13004124e-01
-8.01969230e-01
6.64502561e-01
-2.57739514e-01
1.65069067e+00
-1.44901574e+00
-4.44890440e-01
-2.01183009e+00
-6.20280147e-01
1.18438765e-01
1.82105049e-01
-2.95491457e-01
2.60237604e-01
-4.45194006e-01
-9.86918926e-01
-6.09273970e-01
-8.81909668e-01
7.72400439e-01
-1.47205222e+00
-9.73752290e-02
5.24823427e-01
-6.07883930e-01
-1.40136674e-01
4.72991467e-01
-5.38971543e-01
1.15230834e+00
-1.49830133e-01
-9.01013911e-01
-1.00600612e+00
-3.01711321e-01
4.20562565e-01
2.21778788e-02
-2.20900178e-01
1.14416742e+00
1.06186628e+00
-1.71078873e+00
-6.51882112e-01
6.72144115e-01
-1.20227981e+00
3.03162336e-01
3.45832974e-01
7.82549918e-01
1.44741368e+00
2.23786891e-01
-4.97346878e-01
-2.09575367e+00
-1.10690840e-01
8.91374886e-01
1.55477464e-01
-1.18600380e+00
6.36301458e-01
-3.74854922e-01
2.78422982e-01
-1.05412269e+00
2.50367522e-01
5.54611146e-01
-3.70791674e-01
3.05009532e+00
1.30510688e+00
-8.41084540e-01
-1.04696369e+00
-3.14439029e-01
8.27399790e-01
8.61585811e-02
-1.44901955e+00
9.49932158e-01
-5.63025296e-01
-8.93534303e-01
8.48462582e-01
-6.45347655e-01
3.99716906e-02
-4.29982156e-01
1.45741093e+00
-3.18308741e-01
8.32207322e-01
-4.40799147e-02
-3.48281413e-01
-3.96024913e-01
7.05171764e-01
-4.20345545e-01
-2.49039507e+00
6.56403229e-02
-1.97658449e-01
-1.81959882e-01
1.90493822e+00
1.39680862e-01
-4.67111878e-02
-1.81471848e+00
-2.12584198e-01
1.18862242e-01
-9.60802376e-01
-3.79190207e-01
8.91603827e-02
1.03611219e+00
-2.51599044e-01
-3.22004169e-01
8.29181224e-02
-3.18018124e-02
-4.89409953e-01
-1.35864210e+00
1.27156091e+00
-3.88316125e-01
1.20130587e+00
-3.33848149e-01
5.43523133e-01
-9.26053450e-02
3.36988680e-02
-3.59843045e-01
-2.58361197e+00
8.37934554e-01
-1.61769971e-01
-8.07746112e-01
6.89386651e-02
1.42777324e+00
2.61064678e-01
4.62812722e-01
-1.08386099e+00
-6.57330334e-01
1.98960617e-01
8.03080857e-01
1.11351550e+00
4.07830507e-01
-5.66450179e-01
1.25837529e+00
9.60275173e-01
6.92669809e-01
6.28111959e-01
-7.20520735e-01
2.19070569e-01
-1.91877916e-01
4.57255304e-01
-1.25571644e+00
-3.15392204e-02
-7.38913238e-01
-1.53501105e+00
-9.09120858e-01
-1.25632912e-01
-1.36321890e+00
-9.45326865e-01
-2.60218382e-01
-1.00388300e+00
1.41556770e-01
4.54928339e-01
6.53287292e-01
-5.02433956e-01
1.50800443e+00
5.13168693e-01
-1.02105117e+00
-8.07907619e-03
1.16315670e-01
-8.67962241e-01
6.49077177e-01
2.11969241e-01
-1.22933209e+00
-5.45420870e-02
-7.67661929e-01
-2.83145130e-01
3.30031306e-01
7.65741885e-01
2.79659539e-01
1.29803687e-01
9.44201052e-01
8.07860672e-01
-1.39623260e+00
-1.92132020e+00
1.77930132e-01
-2.03869915e+00
-4.84807134e-01
1.79872465e+00
4.42471445e-01
1.13398075e+00
-1.46432018e+00
2.25833021e-02
-5.13429105e-01
1.42834926e+00
1.60527289e+00
-4.25606221e-01
6.73942149e-01
6.93295836e-01
-1.51501104e-01
1.02409959e+00
1.24381699e-01
-1.27915061e+00
-9.70543742e-01
-1.03025973e+00
-2.12824893e+00
-3.07724714e-01
8.68067980e-01
-1.25760293e+00
5.53373992e-01
7.32822359e-01
-8.60243857e-01
2.71305144e-01
6.49536550e-01
4.15883735e-02
1.16183913e+00
-1.03294194e+00
-1.26293361e+00
5.64722836e-01
8.82072151e-01
1.05637617e-01
6.08196020e-01
-1.05598903e+00
-1.06759989e+00
-1.27706838e+00
-2.12465357e-02
-6.06950521e-01
-4.64724630e-01
-9.03467655e-01
-6.47389829e-01
-5.62292755e-01
-1.65434277e+00
1.23550928e+00
-1.06787944e+00
8.47858489e-01
4.44459468e-01
-1.38181615e+00
-2.80179441e-01
8.31059158e-01
2.15518340e-01
1.88277364e-01
6.56140864e-01
1.69761121e+00
2.53582984e-01
1.30108309e+00
7.39359081e-01
7.66507328e-01
-4.06744778e-01
-8.73351872e-01
2.25964010e-01
4.73670103e-02
8.18469286e-01
-2.16420889e+00
-4.24460232e-01
6.11772060e-01
-4.01131779e-01
5.48325598e-01
3.85968685e-01
-1.64610237e-01
8.64741802e-02
-5.93302310e-01
-1.26564473e-01
1.00944412e+00
-2.56650776e-01
-9.25502658e-01
-1.41638196e+00
-1.48929691e+00
-8.45542550e-02
1.11371553e+00
2.01138198e-01
-5.26270330e-01
-1.24171352e+00
-1.09494269e+00
-5.73076010e-01
-1.29880440e+00
2.64291811e+00
3.40542376e-01
5.54898083e-01
3.04847181e-01
-6.87286705e-02
-1.66852856e+00
1.75097615e-01
-1.58946824e+00
6.85759485e-01
-5.11320353e-01
-6.66091383e-01
5.70507824e-01
1.45189706e-02
-1.49231134e-02
4.33132738e-01
-9.76980507e-01
-1.34713814e-01
4.76733387e-01
-1.41309440e+00
-8.84389043e-01
-7.51911998e-01
-5.97387850e-01
1.21259940e+00
9.42899764e-01
-5.07084668e-01
-6.11655593e-01
-1.48487687e+00
6.32305086e-01
-2.16865033e-01
-3.28627974e-01
3.13848734e-01
8.33794773e-01
1.99907243e+00
6.13760293e-01
1.28427461e-01
2.08682969e-01
-1.24950445e+00
-1.52172184e+00
-1.67098582e-01
4.63261843e-01
1.29379547e+00
2.23628700e-01
-4.06027734e-01
1.01056063e+00
9.55910146e-01
2.23638415e+00
1.05870306e+00
5.97839296e-01
-3.01494098e+00
-8.97224188e-01
1.38525057e+00
1.23586726e+00
8.54285300e-01
-2.32821989e+00
1.00620818e+00
8.04427937e-02
5.13203382e-01
1.03486180e+00
-2.69014144e+00
4.05564904e-01
-1.08150713e-01
1.47038150e+00
-1.15294182e+00
8.69272530e-01
4.63597566e-01
7.28933394e-01
-1.14163852e+00
-1.68383086e+00
4.62025017e-01
1.34112906e+00
-2.59203792e+00
-1.16013563e+00
-4.06084955e-01
6.15013063e-01
5.83302438e-01
-8.52230191e-01
4.54333544e-01
9.25706446e-01
-5.47626503e-02
-2.79366565e+00
1.96900904e+00
3.19101214e-01
3.53045988e+00
9.90526199e-01
-7.46877134e-01
-2.85193324e-01
2.30929092e-01
-1.57614303e+00
-4.32953715e-01
1.96250394e-01
1.65222585e-01
-1.35012281e+00
9.02867675e-01
-6.01855218e-01
4.70356017e-01
-1.10952234e+00
1.58171928e+00
-4.60383892e-01
2.96097010e-01
9.89391625e-01
1.51161265e+00
-1.45373940e-01
-5.15362740e-01
2.52181947e-01
7.08282113e-01
1.71444476e-01
-5.25234222e-01
-1.74669147e+00
1.36713600e+00
9.28541601e-01
-1.00271380e+00
2.46535689e-01
-3.79112244e-01
4.20345962e-01
6.80762604e-02
4.47349519e-01
-3.21845531e-01
3.73993754e-01
-3.79207581e-02
6.25527978e-01
6.19825423e-01
1.51357353e+00
-1.54786968e+00
9.34389293e-01
7.17748553e-02
1.42900097e+00
5.81397653e-01
-2.60180306e+00
-4.69123513e-01
1.13521242e+00
9.79179025e-01
6.92591190e-01
-1.86843351e-02
-1.74746335e-01
-8.64810705e-01
-1.09643686e+00
-5.94087303e-01
-2.24331126e-01
-7.37125814e-01
-9.74907279e-01
-7.59698808e-01
1.72940195e+00
-4.09602016e-01
1.24982275e-01
4.88449603e-01
-4.23035234e-01
-6.66917801e-01
1.76066875e+00
-1.08283150e+00
-3.48136961e-01
1.75483692e+00
-2.91235805e+00
1.44431150e+00
-1.38290226e+00
-9.20104887e-03
-4.23177965e-02
-1.00839746e+00
-2.50185966e+00
-2.01468945e+00
-4.16568130e-01
3.53897586e-02
-2.88470316e+00
1.83750725e+00
1.79556108e+00
-1.43836677e+00
4.89106655e-01
-5.70437014e-01
1.54771125e+00
4.58664745e-01
9.72355008e-01
1.93446088e+00
-8.14402282e-01
3.31188262e-01
6.55976832e-01
5.07587306e-02
1.21653688e+00
8.84965062e-01
-2.91809708e-01
8.91884029e-01
1.10677695e+00
-1.43327224e+00
4.87604029e-02
1.04448402e+00
-2.10431680e-01
-3.19233201e-02
-2.40612701e-01
4.19477731e-01
-8.93840432e-01
1.44554543e+00
-1.04498601e+00
2.46333554e-01
-3.94954234e-01
3.31372708e-01
-5.28799236e-01
-1.19706571e+00
-7.25921094e-01
-1.16845286e+00
1.59702253e+00
1.82014334e+00
3.85434598e-01
-1.07596755e+00
4.58257943e-01
-1.45606673e+00
1.34124804e+00
5.44487119e-01
1.39796865e+00
1.30998477e-01
9.13137019e-01
-3.57197940e-01
1.17100251e+00
1.79285693e+00
-2.74902731e-01
2.97509223e-01
1.31347328e-01
7.86307156e-01
5.19894660e-01
2.04240650e-01
8.07029545e-01
-2.53578091e+00
-7.44295299e-01
-8.98776889e-01
-9.96838868e-01
-1.47998124e-01
-2.93384552e-01
-1.73223984e+00
-6.09984457e-01
-1.12550676e+00
6.35848105e-01
-1.00033224e+00
-1.49230993e+00
1.85965165e-01
-6.07367992e-01
-1.21789563e+00
5.62765479e-01
1.66842031e+00
3.37066621e-01
4.85857815e-01
-4.89943355e-01
5.17000735e-01
-1.10414469e+00
-2.38183439e-02
-1.06744790e+00
1.58208847e+00
1.21222603e+00
-4.38287586e-01
1.30345333e+00
5.00707626e-01
-1.34360492e-01
1.90945268e+00
3.64291430e-01
-8.07669107e-03
1.01400033e-01
-1.16364688e-01
-6.43289164e-02
1.01089215e+00
8.37423727e-02
-2.46908665e+00
-1.30106151e+00
-1.42470741e+00
7.94624910e-03
-8.12966190e-03
3.27009372e-02
-3.30482334e-01
7.08609104e-01
-6.86347187e-01
4.12858158e-01
1.18224406e+00
1.48104143e+00
-6.06827140e-01
4.55170304e-01
-7.96052098e-01
-2.35042468e-01
1.14635789e+00
1.80270374e+00
-2.44518018e+00
1.04211569e+00
5.06623626e-01
1.08399320e+00
-1.24837577e-01
-1.14311862e+00
-1.02418470e+00
1.25799572e+00
1.96016145e+00
2.22377038e+00
1.25069666e+00
1.51964176e+00
-1.33138573e+00
2.32761526e+00
1.52960300e+00
-5.59600234e-01
-1.93310156e-01
1.90517664e+00
8.49412084e-01
1.54861748e+00
-2.00146288e-01
-1.16051388e+00
6.90899193e-01
-4.95102823e-01
3.69734377e-01
6.04387999e-01
3.89289469e-01
-1.63823748e+00
-7.43913293e-01
-6.42734408e-01
5.30847669e-01
3.59318733e-01
3.58185291e-01
3.85521740e-01
-5.76494336e-01
-1.96716666e-01
-2.68350720e-01
-1.27071702e+00
-6.61295831e-01
1.08308506e+00
7.01718688e-01
-1.23490679e+00
-5.01398683e-01
9.16854322e-01
-5.31720102e-01
-8.83393586e-01
-1.79280317e+00
1.27670467e+00
2.56754708e+00
1.75752425e+00
1.19986439e+00
-7.88543582e-01
1.85983264e+00
4.05847937e-01
7.72452414e-01
-9.11011361e-03
-1.57191312e+00
1.42356575e+00
-4.48671848e-01
-3.81312609e-01
8.28625381e-01
-1.14172006e+00
-2.11492091e-01
4.13452655e-01
-3.48270893e-01
1.70922890e-01
2.53470331e-01
8.94238591e-01
-7.64921665e-01
1.05325913e+00
6.20795190e-02
-1.31910288e+00
-1.35485281e-03
1.47870645e-01
4.48817909e-01
-1.67853260e+00
-1.57001480e-01
-1.23478184e-02
-1.31204355e+00
-1.31175089e+00
8.90980661e-02
7.15457320e-01
8.79863083e-01
5.12516141e-01
1.87647486e+00
-1.77045926e-01
6.85033619e-01
9.11193267e-02
1.31984735e+00
-1.23771563e-01
8.45431089e-01
-6.22098029e-01
1.52814782e+00
8.95447612e-01
8.14031124e-01
-5.07480383e-01
-1.51667356e+00
-2.91760683e-01
1.99233496e+00
-1.04979730e+00
-8.43041956e-01
2.39059404e-01
6.42108381e-01
3.75438333e-01
-1.33660948e+00
-4.27362889e-01
1.49123490e+00
-8.48020092e-02
-7.93319166e-01
5.80436587e-01
2.93190658e-01
2.42221713e+00
4.09380585e-01
-6.00873590e-01
6.96243227e-01
2.02674532e+00
-5.06645679e-01
-5.49941957e-01
-4.10733670e-02
9.07145619e-01
-8.83575439e-01
-2.46217072e-01
-2.84843296e-01
3.42032909e-01
-1.09388888e+00
1.71647775e+00
6.85100198e-01
3.51257801e-01
5.12363911e-01
1.45068753e+00
-5.17138124e-01
-1.53513992e+00
-2.95393586e-01
6.38898551e-01
-1.29808879e+00
9.10462558e-01
1.91466749e+00
4.36167151e-01
-1.33492625e+00
2.17749071e+00
9.03196633e-01
1.56827927e+00
9.72251594e-01
3.55847776e-01
-1.91646349e+00
-2.25373197e+00
-7.72089124e-01
-1.80810280e-02
2.55349845e-01
-7.91683853e-01
-2.12852335e+00
1.07072914e+00
6.63285017e-01
4.46705431e-01
9.29366350e-02
1.51755393e-01
1.71958759e-01
-6.88109323e-02
1.06113470e+00
1.59291804e-01
-5.10613441e-01
1.08779693e+00
8.52080047e-01
-3.34643573e-01
-2.94314325e-01
-1.61176458e-01
1.28489149e+00
2.38142000e-03
8.75380695e-01
1.87325150e-01
1.70551980e+00
3.88692081e-01
8.19736958e-01
4.64903787e-02
-1.03702748e+00
-7.27238059e-01
-1.02128017e+00
-5.11419833e-01
8.12546730e-01
-5.48892081e-01
-9.18166399e-01
-1.32591403e+00
9.00983334e-01
5.38927674e-01
-1.24935782e+00
-8.16116929e-01
1.10099673e+00
-5.34976006e-01
-2.59656608e-01
1.45487761e+00
2.54602749e-02
-1.66326329e-01
-2.56933440e-02
-6.20244265e-01
9.94034111e-02
2.56582230e-01
1.36287367e+00
-8.01046342e-02
1.55125761e+00
-5.29037178e-01
-7.85401836e-02
9.90997970e-01
-8.36937964e-01
5.92054188e-01
2.26204276e-01
1.07431978e-01
-6.36318743e-01
-1.94293272e+00
-1.71921164e-01
1.38928628e+00
4.51217771e-01
1.16569984e+00
-8.48996997e-01
-6.72096252e-01
-1.29363978e+00
1.12813866e+00
2.32391998e-01
5.46861589e-01
1.23787653e+00
-3.20209600e-02
-6.87687218e-01
-4.43464041e-01
-1.27512836e+00
1.35701072e+00
7.31839120e-01
-1.98409653e+00
2.18077612e+00
4.26028192e-01
-6.70981526e-01
3.19999978e-02
-1.39437631e-01
5.31310499e-01
1.29841089e+00
2.69430995e-01
-7.50444382e-02
7.43217468e-01
-6.49289906e-01
-7.04338908e-01
-4.53715324e-01
-3.55782688e-01
1.38577759e+00
2.10434699e+00
-9.12377059e-01
1.44319701e+00
1.89038432e+00
-3.84522974e-01
-7.46717930e-01
5.97838938e-01
7.54364252e-01
3.84826154e-01
8.26462984e-01
-2.11000323e+00
-6.82034135e-01
-1.09841907e+00
5.00089169e-01
-1.01013541e+00
-1.37897348e+00
5.49886107e-01
1.23210335e+00
1.61298597e+00
5.43826818e-01
2.10766539e-01
-1.31476557e+00
-4.04005736e-01
1.16696581e-01
2.60929614e-01
4.01346147e-01
-1.21507919e+00
6.79305732e-01
-4.38272536e-01
4.93783414e-01
2.67710686e+00
2.12831661e-01
1.32837784e+00
-4.85279560e-01
1.27245748e+00
1.24021530e-01
-6.48579180e-01
-1.17475629e-01
-7.55285501e-01
-6.31036639e-01
-6.98112071e-01
3.92293006e-01
4.88498926e-01
2.24502087e-01
1.26431334e+00
3.96297574e-01
5.40021241e-01
9.03284907e-01
4.84118789e-01
-2.50465542e-01
-6.68936551e-01
9.68870997e-01
3.30248952e-01
-6.45615578e-01
1.14958155e+00
-1.82567847e+00
8.02474082e-01
-7.74888217e-01
-9.75180387e-01
-1.05754264e-01
-2.80671686e-01
-1.22077143e+00
-1.17659606e-01
-1.66286790e+00
1.73580885e-01
3.10044885e-01
9.70838964e-01
1.11857069e+00
5.01424335e-02
4.68556166e-01
-1.18739270e-01
-8.56158853e-01
1.47708058e+00
-5.14962435e-01
-1.39081195e-01
7.75007904e-01
-8.18964899e-01
-1.73631895e+00
-8.80071104e-01
-1.75701547e+00
1.01902112e-01
7.52937570e-02
-6.47516847e-01
6.50166810e-01
1.95427370e+00
8.91524017e-01
1.07493091e+00
8.36324692e-01
-4.07484651e-01
1.00437179e-02
6.69456482e-01
3.77599671e-02
2.45669276e-01
-1.39272094e-01
1.17846763e+00
1.00322163e+00
1.37113780e-01
-1.39579311e-01
-3.92546691e-02
-1.13074470e+00
5.49229026e-01
2.34910250e+00
9.58421230e-02
-1.98369944e+00
-1.04075491e+00
-3.22358787e-01
-2.69628954e+00
1.89360178e+00
-1.01161146e+00
-4.35917318e-01
2.83192843e-01
3.81452501e-01
2.07211375e+00
-1.14550662e+00
1.79432049e-01
-1.92130104e-01
-1.77018404e+00
6.04221940e-01
1.50188208e-01
2.88269013e-01
4.01237816e-01
4.54395384e-01
-1.33454728e+00
6.01986766e-01
1.05633521e+00
-1.05853222e-01
1.53099167e+00
-1.40864003e+00
-9.35035478e-03
7.98267946e-02
-6.09623790e-02
4.34907258e-01
-1.94290251e-01
4.46075290e-01
4.83701378e-01
-1.42222130e+00
7.11346090e-01
-9.83437479e-01
-1.37743402e+00
6.81694806e-01
8.52778647e-03
2.11438632e+00
-1.25402176e+00
-5.71342528e-01
-2.54262853e+00
3.48978788e-01
9.25218046e-01
-1.53483844e+00
-2.62527257e-01
-5.45610666e-01
-9.82046425e-01
6.43620014e-01
-5.15423656e-01
8.26819241e-01
2.64172137e-01
1.73467070e-01
-1.71082962e+00
-8.33924592e-01
-6.60439968e-01
1.58963299e+00
-6.66618288e-01
5.91579616e-01
1.43578243e+00
-1.01100743e+00
1.04910231e+00
1.54507136e+00
2.00750381e-01
-1.45546579e+00
-1.04494357e+00
9.38831421e-04
-1.19045448e+00
7.97884822e-01
-1.11175068e-01
-1.11865866e+00
6.32757127e-01
9.19315934e-01
5.50771020e-02
-7.01074183e-01
-4.00008559e-01
-1.99722266e+00
-9.20248747e-01
-6.37430966e-01
-2.90911626e-02
2.88858831e-01
8.18083763e-01
4.51053917e-01
-3.80815744e-01
9.78083313e-01
-6.63222075e-02
1.19119443e-01
8.96115601e-01
1.52907765e+00
-4.65582341e-01
-1.42607605e+00
2.74113512e+00
-1.27110970e+00
6.63002133e-01
2.31204256e-02
-9.24889222e-02
-1.42897511e+00
1.42873192e+00
-2.15080202e-01
-2.79259533e-01
-1.33800435e+00
-2.81416588e-02
-2.02577829e+00
-7.99223423e-01
4.78496730e-01
-1.46263614e-01
4.61406916e-01
1.58562398e+00
6.68202102e-01
6.92173362e-01
-1.00805187e+00
-1.31330654e-01
-3.62024188e-01
-1.12403870e-01
-1.59790206e+00
-8.67183656e-02
1.17514563e+00
1.53149322e-01
3.39303344e-01
1.10766923e+00
-7.93739259e-01
-9.33839500e-01
6.94891870e-01
5.16330481e-01
2.03334838e-01
4.41195995e-01
2.47089285e-03
-6.59752607e-01
-1.00795496e+00
-2.93438911e-01
-5.78501701e-01
-4.72176790e-01
-8.44400406e-01
-7.48380840e-01
3.80340308e-01
1.06515074e+00
-4.89342928e-01
-1.50095248e+00
-1.55908513e+00
2.47490808e-01
4.05562341e-01
-9.54625368e-01
5.48810542e-01
4.30322766e-01
7.69792318e-01
1.74717784e+00
1.49941254e+00
-7.78741121e-01
1.39288199e+00
1.94483131e-01
-2.12884411e-01
1.06900677e-01
-6.79810762e-01
-1.27720511e+00
-6.86993301e-01
1.79091513e-01
2.35778004e-01
-5.02863348e-01
-6.67826533e-01
-4.98210609e-01
6.89213872e-01
1.11253273e+00
-9.98755872e-01
-1.42191261e-01
-1.16012144e+00
-2.46250764e-01
2.09066844e+00
4.97436345e-01
1.14374435e+00
1.54307282e+00
4.90917504e-01
1.87838042e+00
7.07716227e-01
-2.17150636e-02
1.91959536e+00
-8.20810795e-01
-1.34805262e-01
1.31987524e+00
-2.87511081e-01
-3.61527473e-01
1.59842372e-01
-1.95709240e+00
-7.55450845e-01
-9.20341313e-02
-3.47581506e-01
-9.17551160e-01
-5.78369737e-01
3.43395650e-01
1.82844114e+00
-6.47787303e-02
9.29750085e-01
1.32219851e+00
2.60004878e-01
-1.24603081e+00
-1.22287367e-02
-1.90876916e-01
-1.38854837e+00
2.32392335e+00
2.89861798e-01
2.34156907e-01
1.79664338e+00
-1.28070176e+00
-4.12375093e-01
-1.60284674e+00
3.72155160e-01
-5.32339990e-01
3.80913585e-01
2.56531954e-01
-1.31734800e+00
-1.28280210e+00
9.75080550e-01
7.18578041e-01
1.68521655e+00
-7.64110148e-01
9.99482810e-01
-1.33096740e-01
-5.32968640e-01
-1.94452631e+00
-5.75403988e-01
-2.40895152e-02
1.24355626e+00
-9.78549719e-01
-1.77609372e+00
-1.19460094e+00
-1.46479356e+00
7.66945660e-01
1.90259870e-02
-3.39826107e-01
5.37803590e-01
-1.34799826e+00
1.03417146e+00
7.19643712e-01
3.62552120e-03
8.94266903e-01
-6.29372656e-01
-1.04790330e+00
-1.49430382e+00
-1.13641286e+00
-5.80903351e-01
7.47740030e-01
1.33345437e+00
1.09978235e+00
1.27539921e+00
3.52701783e-01
-7.15483904e-01
-2.15659356e+00
4.98640984e-01
-1.00092292e+00
2.22429801e-02
5.46932340e-01
-1.59249306e+00
-4.75222409e-01
-2.72646338e-01
-1.43950522e+00
1.23336661e+00
1.40468633e+00
-9.23920453e-01
4.69529241e-01
-3.95802110e-01
7.97332376e-02
-3.50261182e-01
-7.13036299e-01
1.29305363e+00
2.69288063e-01
4.15689558e-01
3.66846144e-01
-1.62453115e-01
-1.04821712e-01
2.73887396e-01
1.19074345e-01
-2.50560552e-01
-5.30988514e-01
-6.65286362e-01
-1.66756427e+00
-6.06549382e-01
5.62440813e-01
1.12275732e+00
-1.16258144e+00
6.33400142e-01
-3.68421763e-01
8.28139424e-01
-1.80317950e+00
-9.57951963e-01
6.38354778e-01
2.35140657e+00
-2.11823964e+00
-4.89261001e-01
-4.20622200e-01
6.86437011e-01
-8.63911584e-02
-1.95218593e-01
1.19121087e+00
-4.33728963e-01
-3.43819171e-01
8.79719973e-01
9.60753500e-01
-9.84050810e-01
-6.41707182e-02
-4.46395844e-01
-1.20895922e+00
9.86143351e-01
1.41228414e+00
-5.73920488e-01
6.86688900e-01
-4.81746107e-01
-1.36069798e+00
-2.18171254e-01
3.22764009e-01
2.74623275e-01
8.78487170e-01
-1.73599446e+00
1.08460747e-01
-1.69246340e+00
1.30254793e+00
7.35893130e-01
-8.21118534e-01
1.25950253e+00
1.18381047e+00
8.28197718e-01
1.35811841e+00
-3.50893170e-01
1.13285193e-02
-1.34266233e+00
-8.81416798e-01
5.27440727e-01
-7.80002236e-01
1.14008391e+00
4.40659076e-01
1.50466752e+00
-9.40789729e-02
-1.60024568e-01
5.44542193e-01
3.99399579e-01
4.34248865e-01
-6.68002307e-01
5.01618862e-01
-6.00948274e-01
-1.00232191e-01
-1.16788566e+00
-1.54893577e-01
5.00881553e-01
-2.10414863e+00
-8.30899417e-01
-6.23263001e-01
7.59779364e-02
-1.37226236e+00
1.56776607e+00
-9.86034393e-01
1.91262400e+00
7.08767056e-01
-6.20698571e-01
8.83827746e-01
1.01835442e+00
2.92236972e+00
1.01822329e+00
-1.03918147e+00
5.77657104e-01
1.54861915e+00
1.37484026e+00
8.22975814e-01
-2.71152377e+00
-5.25400579e-01
-3.03169250e-01
-1.83890879e-01
1.13062954e+00
-1.60429096e+00
-3.56007934e-01
2.82375157e-01
2.68449157e-01
9.57565725e-01
-6.16494298e-01
-1.91750383e+00
2.49327540e-01
6.21919394e-01
-1.86101127e+00
-9.35562626e-02
1.61165744e-01
9.89037395e-01
-3.39743160e-02
1.16942249e-01
-1.17882776e+00
-1.56704843e+00
1.55210030e+00
-3.94002378e-01
6.22335017e-01
2.44553447e-01
-2.10394979e+00
1.77233410e+00
-5.44616520e-01
1.59918213e+00
3.72963518e-01
7.45943487e-01
6.19239390e-01
1.33692312e+00
-1.53723395e+00
8.94325078e-01
-7.27089107e-01
-1.65805566e+00
-1.03097451e+00
-5.11798203e-01
6.77879393e-01
-4.41520005e-01
-9.74411517e-02
2.96151340e-01
1.61588633e+00
9.81112063e-01
1.33717608e+00
-3.12339067e-01
-6.88672543e-01
1.58871599e-02
-2.52649963e-01
5.57258785e-01
6.76056623e-01
-1.18416500e+00
-7.67754674e-01
3.17759812e-01
2.76375115e-01
2.88800389e-01
-8.02276134e-01
-1.53179402e-02
-2.16252461e-01
-8.39318559e-02
-6.32626951e-01
-5.06284475e-01
-1.36418557e+00
-2.22652569e-01
9.68205452e-01
1.33389795e+00
-1.19053328e+00
1.52849233e+00
-6.45065069e-01
1.30714625e-01
-2.24291533e-01
-1.17527282e+00
1.93966866e-01
-3.28639328e-01
-4.01155740e-01
1.68609872e-01
-9.97920871e-01
2.76854843e-01
1.33598566e+00
-5.53911924e-01
-6.23573326e-02
-5.46973228e-01
-1.56836435e-01
-4.29244310e-01
8.36350501e-01
3.93288046e-01
-1.18575108e+00
9.62002516e-01
4.20064002e-01
-8.34821045e-01
-7.35781863e-02
1.08139515e+00
8.23197901e-01
9.22911406e-01
-5.98441839e-01
-1.22400291e-01
-1.06453812e+00
6.26033992e-02
-1.10399747e+00
-9.54212427e-01
-1.55841494e+00
-6.33137286e-01
-1.18913114e+00
9.28032160e-01
9.68327284e-01
1.41347933e+00
-1.32154143e+00
-4.32918787e-01
8.39055553e-02
-5.54913580e-01
1.58949792e+00
-1.18645072e+00
1.12267840e+00
-1.66716069e-01
1.07817128e-01
-2.79117465e-01
-1.68304908e+00
3.94198000e-01
5.25907755e-01
1.46056509e+00
-2.28261277e-01
-1.58238506e+00
2.28738546e-01
2.04388618e-01
6.30014777e-01
1.08618736e-01
6.57134280e-02
1.27645159e+00
2.04274654e+00
1.14709175e+00
-2.21288964e-01
-1.72402048e+00
-8.88858259e-01
-1.53634608e+00
3.63240063e-01
-1.20671362e-01
1.49092758e+00
-5.26491642e-01
-2.81620435e-02
-8.49693477e-01
-1.62965894e+00
-5.60094535e-01
1.23919582e+00
1.23824787e+00
-6.87779665e-01
-8.78057241e-01
5.16812563e-01
-1.44005036e+00
1.20447028e+00
1.19208848e+00
-4.81445372e-01
6.34683907e-01
6.33729935e-01
8.18091094e-01
-6.32597744e-01
-3.06335967e-02
7.88564980e-01
4.55275834e-01
3.22653234e-01
3.48966457e-02
2.69998580e-01
-1.00812137e+00
9.59179223e-01
-2.81431340e-02
-1.14982776e-01
-6.22674227e-01
-1.17612886e+00
6.57501519e-01
6.85256660e-01
8.62075150e-01
4.08676535e-01
-6.66023940e-02
-8.32407713e-01
-3.81010652e-01
2.70873117e+00
-6.22817039e-01
-1.86290574e+00
3.70255113e-03
-8.74808490e-01
1.33238757e+00
9.08283889e-01
-4.48104024e-01
-1.55688751e+00
4.44704205e-01
-2.49029528e-02
1.30714595e+00
-1.24106574e+00
3.14258218e-01
-9.82154682e-02
2.23231006e+00
9.77725565e-01
-3.92467409e-01
-1.78963590e+00
4.52351160e-02
2.21268818e-01
-9.36387599e-01
1.07099557e+00
-1.71670246e+00
-1.27724811e-01
1.00528562e+00
-8.31365287e-02
1.37682900e-01
4.87636209e-01
3.55854571e-01
8.91594350e-01
-1.25440741e+00
1.64091498e-01
5.93537390e-01
-1.55486119e+00
8.97433937e-01
1.72389999e-01
3.27065200e-01
-1.41506839e+00
8.55417967e-01
1.22880721e+00
-8.48516047e-01
-1.67256868e+00
-1.31822169e+00
-1.71139312e+00
1.05608547e+00
-5.23356736e-01
-1.88541090e+00
-3.51311207e-01
-9.06190634e-01
4.84925061e-02
-1.11636817e+00
9.69192803e-01
1.05848408e+00
8.01775157e-01
6.26366556e-01
-1.95740736e+00
-9.90510583e-01
-7.01170206e-01
1.84117287e-01
-2.19465107e-01
-4.94579107e-01
-3.79333198e-02
-1.64855731e+00
3.29638571e-01
-6.58459306e-01
2.06034735e-01
1.00311267e+00
1.98197019e+00
-1.02948594e+00
7.64989078e-01
-1.24618061e-01
4.87384290e-01
5.86063325e-01
9.71241176e-01
-3.42161685e-01
-9.23675120e-01
-4.62274909e-01
1.10987806e+00
-1.78618461e-01
1.46715254e-01
-2.89908648e-02
-1.20758407e-01
-1.10379481e+00
-6.45979464e-01
1.66451049e+00
7.89891754e-04
-5.90041764e-02
-5.35031319e-01
1.87789536e+00
4.07095522e-01
1.18936010e-01
8.58477592e-01
1.89266014e+00
-1.47164762e+00
-2.86394395e-02
1.46769345e+00
1.09702051e+00
6.81734443e-01
-9.73579939e-03
-1.20808661e+00
-1.75312027e-01
-2.90591210e-01
-3.71644825e-01
1.71521366e+00
-7.15454280e-01
5.37923127e-02
-9.21494886e-03
-5.24420977e-01
3.76194179e-01
-1.17120159e+00
-2.46155471e-01
4.04326543e-02
2.37941816e-01
-1.19207039e-01
3.95494640e-01
7.76687205e-01
-9.30796444e-01
1.06200504e+00
9.32121873e-01
-3.78368735e-01
4.49806869e-01
3.36865544e-01
-7.91589916e-01
-5.92111826e-01
1.15401842e-01
6.13440037e-01
1.93904415e-01
1.07652855e+00
3.30343336e-01
4.41892482e-02
4.76239502e-01
-2.22853586e-01
-1.41985685e-01
6.20658994e-02
5.60265958e-01
-4.16980088e-01
-2.59241819e+00
2.61178184e+00
5.71159482e-01
-2.91054726e-01
8.24116826e-01
-1.01181948e+00
-3.68510693e-01
2.64330459e+00
-4.00044888e-01
4.11810018e-02
-2.58324671e+00
7.83383846e-01
2.28025246e+00
5.04578173e-01
6.78564548e-01
3.50587457e-01
1.05608547e+00
-3.20103884e-01
1.97277474e+00
-2.96063542e-01
-1.62071869e-01
7.07303047e-01
-4.94934499e-01
1.10287416e+00
7.99146950e-01
3.00672561e-01
1.18012333e+00
6.17816329e-01
-3.47075820e-01
-2.73114890e-01
-3.48440588e-01
-1.94884077e-01
5.95433414e-01
2.13837337e+00
8.45086396e-01
5.35201192e-01
-4.74599302e-01
5.76106429e-01
-9.28557277e-01
-1.53757942e+00
2.51329690e-01
5.86737573e-01
-7.84136713e-01
5.70373118e-01
2.05030695e-01
1.41365469e+00
8.49092126e-01
2.70927489e-01
4.19494510e-03
-1.49083972e+00
-2.08190966e+00
-3.97526234e-01
-4.45296317e-01
-4.78077084e-02
4.86173481e-03
-1.27748311e+00
-1.74904585e-01
-6.17706776e-01
-3.00928682e-01
4.25779432e-01
6.38058484e-01
9.48638737e-01
2.21448094e-01
2.99453199e-01
9.71332729e-01
1.41478717e+00
-7.44411647e-01
-8.88143182e-01
7.10490644e-01
3.58850479e-01
7.12934852e-01
-8.76253963e-01
6.78372681e-02
1.43592811e+00
7.36306667e-01
-1.04143238e+00
-1.14636397e+00
7.22829401e-01
-1.22654855e+00
-4.23184782e-01
-3.55851382e-01
1.52733758e-01
-3.89602244e-01
-2.43984371e-01
-5.44320107e-01
-2.72601873e-01
-2.80134797e-01
1.17699373e+00
-8.84716153e-01
5.26042879e-01
-6.05638810e-02
-6.43188834e-01
7.11154342e-01
-4.15560633e-01
7.75087893e-01
-1.25089848e+00
5.71698010e-01
1.80073917e-01
4.95767683e-01
1.01367462e+00
3.29105914e-01
-1.84820771e+00
-1.22124672e-01
-2.10113198e-01
1.32083094e+00
-7.52008855e-01
-1.10678577e+00
7.34113812e-01
4.25924182e-01
-3.02055144e+00
-9.87333953e-01
-1.15150511e+00
-2.22593516e-01
-8.34465846e-02
1.40815884e-01
-1.74044144e+00
7.50220835e-01
1.56072348e-01
1.20534527e+00
-1.37465394e+00
4.06031400e-01
8.72942805e-01
-3.03957045e-01
-1.96194470e+00
-8.73432159e-01
-2.16530278e-01
1.07979663e-01
-1.40007412e+00
1.53201020e+00
1.18915284e+00
-6.13532543e-01
-2.49807257e-02
1.56373477e+00
2.55850625e+00
-1.12154253e-01
3.37844461e-01
-1.24945911e-02
1.46211493e+00
-1.07131195e+00
-1.21039164e+00
1.60163534e+00
-1.75786894e-02
2.08723955e-02
-5.84912002e-01
-6.39004409e-01
-3.05368841e-01
3.30817580e-01
-1.13161850e+00
1.65677762e+00
-1.84802663e+00
-2.77288586e-01
-1.36335206e+00
-2.32190907e-01
1.89525053e-01
-6.56182408e-01
3.13194841e-01
-5.36508441e-01
5.68656027e-01
-1.03260911e+00
6.13641627e-02
-1.64843440e+00
1.90339491e-01
6.92574441e-01
-2.17283726e+00
3.99807155e-01
4.33186471e-01
2.50840008e-01
1.51270032e+00
-1.40096772e+00
1.08975880e-01
9.16420281e-01
1.18865860e+00
9.06652868e-01
-2.76734173e-01
1.75258505e+00
1.41808435e-01
-4.46202546e-01
2.35329700e+00
-1.59310758e+00
-2.67502457e-01
-1.05169940e+00
-2.20488501e+00
1.66301024e+00
6.09593511e-01
9.31293428e-01
-1.56625903e+00
-1.20179661e-01
1.78157285e-01
6.47602379e-01
1.68274832e+00
1.55626941e+00
1.03000641e+00
9.49564397e-01
3.04165632e-01
3.53367999e-02
-4.39017452e-02
1.28533792e+00
-1.62859201e+00
4.55467194e-01
-1.19649313e-01
1.49035120e+00
-4.70857382e-01
-7.23785102e-01
2.26412743e-01
1.14529526e+00
8.47349405e-01
-1.26311541e+00
-2.24434629e-01
7.12463081e-01
-4.02981222e-01
-5.90847790e-01
1.37520835e-01
-4.14012522e-01
7.27186143e-01
9.94994462e-01
-4.71307486e-01
-1.70574948e-01
5.74024282e-02
-5.31429052e-01
1.27737463e+00
3.25209647e-01
1.60089743e+00
-7.59992957e-01
-1.47598013e-02
7.38571823e-01
3.83128822e-01
-1.07233778e-01
-6.83142781e-01
-6.08780026e-01
-1.03726256e+00
-2.12958336e+00
2.16316491e-01
-7.68242657e-01
-9.33490217e-01
-5.77694178e-01
1.07933295e+00
-2.99144298e-01
1.27836823e+00
1.30199111e+00
5.56071818e-01
-6.38005614e-01
2.97940671e-01
3.87537837e-01
-1.18471253e+00
-7.71842957e-01
-8.63212869e-02
-8.46795857e-01
-2.04353724e-02
-2.24448562e-01
1.53159574e-02
1.60441840e+00
-2.46899221e-02
1.46308970e+00
-2.34075248e-01
4.34205443e-01
-1.25066745e+00
1.52934825e+00
-9.11856592e-01
8.79987061e-01
1.21058345e+00
-3.70987326e-01
-4.69466567e-01
4.26705569e-01
7.32537746e-01
8.69649708e-01
-1.77627444e+00
1.64253190e-01
1.39569306e+00
-8.70986998e-01
3.47553402e-01
8.16073239e-01
-2.41134405e+00
-2.27445126e-01
-1.16725013e-01
-2.97354273e-02
-1.23423910e+00
-1.56333625e+00
-4.37809348e-01
5.93652546e-01
1.53880939e-01
8.80005211e-02
-1.72538793e+00
-4.58120704e-01
2.17612123e+00
-1.32022095e+00
6.25090778e-01
1.63889527e+00
-6.27262831e-01
-9.62760925e-01
-1.05761123e+00
9.07374263e-01
4.00099993e-01
6.33699358e-01
-4.33750927e-01
-6.29363477e-01
1.83109149e-01
-1.06350267e+00
8.37222397e-01
1.22851694e+00
-1.28016126e+00
-5.86976409e-01
-1.30214587e-01
4.35361683e-01
-1.57019758e+00
1.09881437e+00
3.43668342e-01
2.90591061e-01
1.09742045e+00
-5.69879115e-01
-1.53126824e+00
-2.53189385e-01
2.56435663e-01
2.62706184e+00
6.82360649e-01
-7.67779589e-01
-3.62695962e-01
-1.68719769e+00
2.06315756e+00
-7.53060400e-01
-1.74326643e-01
-9.61342454e-01
2.23437443e-01
8.40144515e-01
1.96967065e-01
-2.44550020e-01
7.27462411e-01
-3.90829444e-01
-1.66313148e+00
1.16269374e+00
-7.34220147e-01
8.38911533e-01
2.79684901e-01
-1.34949541e+00
1.14002776e+00
-4.22548443e-01
2.05315757e+00
-2.73146719e-01
-1.15804708e+00
-9.71074775e-02
3.87920216e-02
4.57320750e-01
-5.56420207e-01
-5.57462394e-01
-9.14464712e-01
8.13428462e-01
-1.22019815e+00
-5.07474065e-01
-9.64043736e-01
1.14273980e-01
1.89874351e+00
-5.09533226e-01
-1.24715447e+00
-1.98256898e+00
1.72407138e+00
-1.00942981e+00
6.43231094e-01
4.10657167e-01
