0.77665251
0.41789058
-0.96389830
0.50042164
0.21032593
0.38947710
0.72303057
2.36043811
-0.38578305
-0.22001337
1.96433687
-0.68312836
0.05864831
1.35669184
0.24842936
0.33886790
-1.23067355
0.91347885
-0.48411086
-1.72605312
-1.06819165
0.80720627
1.18505526
-0.79730248
-0.54078341
1.05020189
-2.31649923
-0.73869962
-1.46784055
1.86694610
2.15775609
-0.59116834
0.78488451
-1.16212523
0.80980879
-1.17378533
-0.76589942
-0.61036068
-1.14418113
0.63895738
-0.10711662
-0.18484287
-0.28501382
0.56472337
-0.11445752
1.05102086
0.22077863
1.48146534
0.66426861
2.32765865
-0.56564987
1.15129244
-0.05463973
-1.46130002
-0.66205531
-0.20014052
1.60538483
-1.25289214
-1.30321300
2.11728168
2.65853643
2.00410414
-1.32686412
0.48926955
0.66976726
0.11992981
0.30729166
-0.11771987
1.35269845
1.43712831
0.07564408
1.14600515
0.58114612
-1.65631294
-0.11391620
0.41007403
0.41235644
0.72718912
-0.38086501
-0.23855264
2.06548786
-1.97642112
0.49307373
0.51584661
-0.72930330
-2.63644886
-0.65363556
-1.42129219
1.81970489
0.16977750
2.26313448
0.45820323
1.03252804
-0.80455887
0.49465653
-0.07127964
-1.34452820
-0.14244790
-1.19346857
0.54357457
0.48946041
-0.14603730
0.53694284
1.21068418
0.06931221
2.11437511
0.39572921
-1.91744065
-1.14290619
0.85559517
1.17747152
1.18789494
0.08416089
0.10642708
0.36063898
1.09396195
0.50345796
-1.99575996
2.80601740
0.19073729
-1.56177402
-1.14835763
-1.61670983
0.79292846
-0.98739612
-0.68629795
-0.10525753
1.03253448
1.41439080
-0.46872392
-0.52872235
-0.17578194
1.57531810
-0.67402112
0.63734293
1.21134222
-0.89657557
0.08674338
0.80478400
-0.23011810
-0.95950854
-0.60328597
1.09868264
-0.47010526
1.34648800
1.83123600
-0.16108181
-1.23048890
1.23939323
-0.94405186
-1.01957738
0.01049064
-2.15240383
0.10331021
0.36595514
0.74400145
1.44168782
0.04024763
-2.49704742
0.31602791
-0.06858195
1.49789631
1.02325463
0.21011247
0.71685851
0.06779040
-0.05138683
0.91098821
0.45407340
0.17170639
0.45039925
-0.07654744
-0.59489191
-0.33378831
-1.28530049
0.68765366
-1.06505001
-0.49969357
0.34896621
-0.04825888
-0.70397437
-1.00306654
-3.77460861
1.30934012
-0.86180514
-0.22011845
-0.23075466
0.15636764
-0.09559616
1.05507088
0.60871786
0.15135162
-0.72467571
0.79485643
0.60122472
0.56500357
-2.17339134
0.61931401
-0.18501374
-0.08327840
-0.56502289
0.63012856
1.20363700
1.32370186
0.13246001
1.69933879
0.36558539
-1.64178634
0.05610976
1.10270464
0.27187181
0.14877558
-0.44000429
0.69220668
0.26236331
-0.78677237
-1.11837447
1.29675329
0.10499442
-1.53730202
-0.09403208
-1.07409286
-0.87869567
-0.12277288
0.86055297
0.31789494
0.54786450
-0.81665689
1.05637443
-0.99161446
-0.90311384
-1.25901175
0.73182279
-1.52382970
-0.15478772
-0.06324472
0.74175751
-0.11682456
0.60394788
-1.79792631
1.59729254
-0.60318136
-0.45292932
-0.83218652
1.37509894
-0.43667838
0.40596193
0.27459756
-0.78611010
-0.33182660
-0.64478183
0.60645127
0.77309859
-0.28024721
-1.11944103
0.15835989
-0.39059824
-0.23406379
1.18108153
-0.51080555
-1.88028038
-0.11736715
-0.08587969
-0.13436414
1.00428426
0.15920928
-0.23701736
-0.07417861
1.48047817
0.12795945
0.39320794
-0.88776386
0.43534672
0.74231613
0.28863877
0.19950642
-1.19355500
-0.44491339
0.48479629
0.25621435
-0.82340348
0.89950025
0.78188121
-1.80736828
-0.23522188
-0.14694500
0.33040780
0.91254836
0.56214595
0.56224412
0.51239103
0.14759497
0.77507979
-0.33066145
-1.52389038
-1.32701647
-1.50063896
-0.05424082
1.30020642
-1.84295416
-0.54222775
-0.43956161
-0.74013066
0.08101631
-0.49535504
-2.27863908
-2.17484665
-0.34321216
0.71760911
-0.13562949
0.31209332
-0.61910909
1.61980045
0.34066391
0.98205096
1.36104918
0.70870501
-0.22885674
-1.74709558
0.45646405
0.02219684
0.28150073
1.30173242
2.26379371
0.03786564
1.43508017
-0.11679249
-1.19897223
-0.60769027
0.35197800
-0.12157314
0.33664051
1.45315790
-0.10438351
1.84147453
1.21662223
-2.10770035
0.08839363
0.94392222
0.16370206
-0.25624850
0.55581766
0.25972638
0.51541191
2.08661509
1.20245385
-0.67468214
0.21862958
0.84879053
-0.62396759
1.61458659
-0.91748250
-0.36273432
-0.97131324
0.99014592
-0.88846397
0.38469315
-1.47685969
-1.44055033
1.37200642
0.13989668
-1.04742098
-0.82664007
1.87825584
0.33838627
0.15445529
-0.83742005
0.07526867
0.61349809
-0.13610552
-0.96196204
-1.43621635
1.26677060
-1.65094161
0.33876741
-0.26557711
-1.51544428
-0.73746431
1.64988434
-0.31682611
1.51631033
-0.09805898
-0.73124063
-1.59871221
2.16305923
-0.82259059
-1.16554427
-1.35125208
-0.34659734
-0.20389274
-2.73765898
-0.04563278
0.29163253
0.78701556
0.06548143
0.16202681
0.28078046
0.63549179
-0.49486282
-1.34341073
-0.31019360
0.95152229
1.53534544
-0.88280338
0.23224263
-0.18684520
-0.29246503
-0.29194379
0.43477795
-0.60964596
-0.65261018
-0.59928101
1.20453918
-0.76380694
0.04360111
-1.47364807
-1.23260081
-0.11850514
-0.22384931
1.36771917
0.78044987
-1.18063509
-1.13494611
0.88085186
0.68902296
0.02167126
2.68379617
0.13832104
1.18204379
-0.63034248
0.58755398
0.57740176
0.45937994
-0.45836440
0.79323792
-0.54032069
0.40666941
0.39394629
-0.19426484
-2.72527647
0.55011249
-1.81305361
-0.38227227
-0.19355185
-0.89821368
0.69971323
-0.28731817
-0.77348018
0.48083439
-0.16926527
0.06258969
-0.04067609
-1.94644403
-0.47490397
-2.00249696
0.44390446
0.56364673
-0.59019852
1.76507258
0.56209606
-2.80065560
-1.16238320
-0.79705107
-0.96533608
0.88449931
0.78272593
0.56591648
2.97827148
-0.40179804
0.57755613
0.16544865
0.95824486
0.15752853
-0.20932095
-0.57878000
0.03916911
-0.39663237
-0.18913287
1.03503168
-0.40119737
-0.74992257
-1.43317425
0.00250529
-0.43771774
1.34835112
0.68079895
-1.02974868
0.71921265
-0.31503671
-0.55659449
1.13589156
-0.88315982
-0.51083302
0.92274565
0.83434993
-0.32625404
1.01582503
1.23708463
1.09742343
0.07356205
-0.43031830
-0.40271702
0.79328120
-2.53610706
-1.26763213
0.95715004
0.40568343
-0.62323898
-0.21120951
-1.97411644
1.40841722
-0.40756240
-0.59387636
0.02237842
0.36242050
0.11280297
-0.76737732
-1.33667624
1.31365609
0.13528495
-0.49003246
-1.32057631
0.71272266
-0.62956297
0.14160508
-0.59186918
-1.09755790
-0.46502197
-1.08014071
-0.93899351
-1.28957891
-1.03209603
-0.05899521
-0.92316574
0.13508898
0.40955642
0.66667974
-1.04052997
0.72750980
-1.55723822
1.52976716
-1.50673187
-0.57441550
-0.21938214
-0.65407115
-1.05358696
0.64274579
-1.40518343
-0.09806197
0.80883402
0.08361980
-0.63163882
2.08988333
0.76656872
0.37198636
0.45321459
-0.13245173
-0.31101820
0.90251613
0.62458080
-0.54392588
0.65428925
-0.53726882
0.00704357
-0.91311890
1.01766682
0.90227771
0.38954520
0.13131738
-0.83058906
0.91401434
0.21013558
-1.39534605
-0.33687094
-0.19764927
0.30017391
-0.39119640
0.37941027
0.05541831
0.62853676
0.33758533
-1.18223524
-1.37948322
-0.16660951
0.04733785
-1.16791284
0.61014700
0.34121403
0.05265503
-0.29666483
-1.30580068
0.49550596
0.59903383
0.19480121
0.21317333
0.61949366
-1.59382224
-0.40101203
1.36189783
1.16608799
-0.59084994
0.39956015
-1.35836840
-0.95740134
1.47075927
-0.57594699
-0.72054183
-1.29039085
1.30140865
1.18867850
0.28465056
-0.30553627
-1.52831078
-0.60985190
0.47231886
-2.16555142
0.90732449
-0.38651273
1.20515656
-0.91377819
-0.48377410
-2.35244083
0.44803941
0.21880473
-1.40021968
-0.07124691
-1.13701522
-0.66031760
-0.09764259
-0.12232041
0.99531984
0.95338768
0.48085114
1.43220031
-0.88910633
0.09977440
-1.06358075
0.12397683
0.04881233
0.34872764
0.01636891
1.28963029
-0.25497285
-1.78524232
-1.32984018
-1.13493156
0.51535004
-0.19863781
0.63208646
0.49948141
-0.73568290
-1.01693022
-0.14027540
1.43018806
-0.73423284
-0.63288671
3.13256812
0.19421430
0.92335123
1.18957913
-0.74897063
0.16417885
-0.29342481
-1.37956929
-0.60381043
-1.25089490
0.37150487
-0.11120076
0.54495656
-1.23142993
1.61536372
-1.07513702
-0.54792398
-0.03016473
0.17957242
0.63063794
0.53432667
1.26368701
-0.23267673
-1.12505853
0.83736742
0.12978925
-0.65144014
0.01340606
1.21068335
0.75601453
-0.09393697
0.81856126
-0.31666359
-0.73817700
0.56821585
-0.06361597
0.74053639
0.93855762
0.04830027
0.30678171
0.74083507
-0.16096230
-0.75168562
0.52246267
0.66574770
0.76068032
0.22474356
1.42258847
0.57256013
-0.42938632
-0.10608359
-0.36567053
-1.71571815
-0.13034742
-0.71692151
-1.55266702
-0.69545108
-0.47840068
0.13764338
1.58972371
-0.49373949
-0.61794829
-1.25448632
0.39081258
0.29743189
2.01198363
-1.50292635
-1.43465090
0.59886289
-0.10457949
1.29871070
-0.92028666
-0.76015538
-0.81037593
0.16580552
-1.58700359
1.43647659
-0.45988381
1.44848990
1.35000539
-0.38495889
-0.79131597
1.02295172
0.21430989
-1.32611895
0.93691540
0.83422756
-0.86315608
-1.24560750
-0.11452813
-0.67146736
-0.64791584
0.39219445
-0.15392627
-0.73544437
-0.86768991
1.82790232
0.44565189
-0.57359165
0.04963603
-0.67215985
-1.37438631
-2.58352280
1.06661034
1.14542925
-0.24218392
-1.07541442
1.55459595
-0.00006808
-1.05728984
0.74462545
-1.37504995
-1.77304435
-0.06637467
-1.29795337
-0.03663445
0.73767096
-1.16944969
-0.05664832
-0.86771232
1.07608509
0.36676168
-0.18442465
-0.12235214
-0.34604591
0.55302310
-0.23956773
-0.07302504
0.66102946
0.15316339
1.43950248
0.40072238
-0.96671838
-0.34502515
-0.38996843
1.27452731
-0.08199128
-0.34669727
-0.30900788
-1.37332702
-1.25032961
-0.72143167
-0.45003301
-0.62075913
0.66639984
0.72329694
0.66663700
0.02602380
0.11005707
1.21421516
-0.35323024
-0.79515249
-0.40544775
-0.57842535
-1.06942070
1.16691959
0.85416120
0.69049746
0.81010044
-2.03028798
0.69947499
0.97800422
-1.24021471
-0.10493916
0.31492716
0.19304764
3.27357817
-1.32518327
-0.13469025
-0.38368356
-0.78915322
-1.18099439
-0.80703992
0.01421621
-0.61332989
0.91070551
0.45257875
1.17490089
-0.92285639
0.52262807
-0.50356960
1.31425345
1.29370487
0.36300123
-0.17423268
-2.11357665
-0.70165235
-0.03228658
-0.64074016
0.84768063
0.50040090
-2.20209599
0.25147751
-1.57054770
0.33403853
-0.53802276
1.00637317
0.32316300
-0.11218030
2.11596727
-1.10594606
-1.05714273
0.78860962
-0.36777458
-0.99083745
-2.10202479
-0.08203122
0.56704879
0.84762186
0.10069987
-2.10579443
-1.66966248
-2.26558924
0.90802944
-0.84186333
0.30796182
0.37371194
0.56288773
-0.86095160
0.27407998
0.86474556
0.38638180
2.31485486
-0.75922656
-0.62779057
-0.98629320
-0.18763052
-0.05422965
-1.41372728
-0.80517215
-1.21098065
-1.10827255
0.48333704
-1.04972029
-0.18748742
0.48520839
0.79015279
-0.15552138
0.49244851
-1.05122292
1.60029685
0.21876751
0.26398450
-0.82536364
0.27662912
-0.13976483
-0.95752966
-0.59324223
-0.06263994
-0.98330837
-0.26391745
-1.04797828
0.31633598
0.00876320
0.72686851
0.26794392
0.85952032
-0.72096282
-1.11530340
-0.21263006
-0.11442339
-0.59770465
-0.51095247
1.61199319
1.40436137
-1.17352390
0.03444232
-0.15048620
0.23335254
1.60979700
0.87788516
0.47874889
-0.07302401
0.10283794
0.65965378
-1.54107606
1.38585663
-1.43610561
-1.29069912
-0.65301776
0.84610671
-1.42311835
0.88785356
-0.24536924
-0.60441071
-0.82306188
0.82205969
-0.08922246
0.63389421
-0.39070940
-0.91529578
-1.56983268
1.41669571
-0.14908366
-0.43727204
-0.59754694
-0.10292997
-1.15294361
-1.03704810
0.00392627
0.31724700
0.06689326
0.30268216
0.31421971
0.48556715
1.14496338
-0.99560899
-0.89128023
0.39308745
-1.48945916
-0.37879434
0.13985397
-0.00969463
-0.04748510
-0.49088082
-0.12029993
0.67015219
-0.95460194
-1.06901121
-0.88742077
0.51547897
0.26508141
-2.00611281
1.50171995
1.47241151
0.23744066
-0.93726343
-0.31090587
-2.05116439
1.97206771
0.36985242
0.67156291
0.66815966
-0.14369155
-1.12107992
-1.21953309
0.19953333
0.95194697
-0.60067916
-0.15235938
-0.13940243
-0.81849408
-1.29961729
-1.94950128
1.01583612
-1.33018756
1.38372433
-0.82155758
-1.36519897
0.77551359
0.38983548
1.67688572
-1.19416869
0.98285884
-0.53685123
-0.07027820
-0.48483741
0.50871050
-0.71796232
-0.43220821
0.21087889
-0.90847695
-0.38836828
0.58141148
-0.16058801
0.47148192
1.28753877
0.62043244
1.31545269
0.35679340
0.29056364
-0.40006036
0.02800414
0.66258180
0.24323839
-0.12564014
-2.44227624
0.19115971
-0.79376256
0.49918050
-0.88908058
1.23966706
-1.76223409
-0.31971133
0.02624790
0.31935832
0.25155377
0.50932205
-0.00782713
-1.41542113
0.82965851
-0.95547527
0.14661579
0.22849870
-0.97106445
-0.57701224
1.16884136
-1.58316159
-0.90310419
0.71553016
-0.96761608
-0.42066735
1.09094036
-0.48732948
1.37581444
1.05296218
-0.17089565
-0.55781960
-0.01056837
-0.38349426
1.38765633
0.00386826
1.23494589
0.08673272
-0.80394870
0.19490357
1.46066666
1.76764798
1.46856785
-0.72165316
0.57386875
-0.30038974
-0.48732790
1.88433337
-0.52985650
0.25705332
-1.92042804
-1.00662065
-0.20654292
0.22177042
-0.56002909
-1.44948769
1.53893447
-1.40282691
0.18552537
0.47316664
-0.65488523
1.67254102
-0.26329243
-0.85794449
-0.72812945
-1.34415948
-0.84265572
0.73275465
-1.27632320
0.67540246
0.65206778
-0.12471953
1.45820999
-1.04010105
-1.65062010
-2.02757621
2.16428375
-0.39063132
-0.67918152
0.82882267
0.74362475
-0.59821701
-0.06576713
-0.21527208
-0.38299376
-2.10906434
-1.69118202
-0.58844334
1.21272743
0.06903170
1.78120840
-0.03199699
-0.54317081
0.90470445
-0.13729641
-0.84042233
-1.18578207
-0.75391698
-2.58333063
0.96929228
-2.10583949
0.30662748
0.31480026
2.05278850
-0.42282924
0.45505384
0.60040408
-2.14586210
2.01117754
0.25497243
-0.85678679
0.38530138
0.40491313
-1.47101712
0.66072905
-0.05312708
0.96538258
-0.90227580
-0.13868882
1.22283149
0.86232293
-1.83226299
-0.44446287
0.56792426
1.67909253
-0.01599839
0.42474252
0.45430937
0.60281205
-1.61932206
0.34981158
0.27701876
0.23609757
-0.73509043
-0.28003058
-0.67119402
-0.13382989
0.71422088
-0.02165828
-0.56539202
-0.13840373
0.98906708
0.37392229
-0.55990595
-1.30114079
-1.35625529
-1.12155247
-0.48939991
-0.84393370
-0.68877494
-0.04077604
0.90413904
0.10049419
-0.16332281
-0.84264320
0.73003566
-2.01946950
1.24680531
1.55538034
0.19309464
1.70766771
-0.77847677
1.05093503
-0.26915589
-1.45328891
0.26365528
-1.80457640
-1.05698693
0.85822475
0.90641552
0.02476026
0.50223351
0.45371675
1.05171669
-1.19549882
0.53501523
-0.33606583
0.07470696
-0.31443009
0.15639071
0.34138992
-0.19936016
-0.15132919
0.05940560
1.79170394
0.05236315
1.19126964
0.26655826
-0.46090180
1.73520327
-1.08901131
-0.41692641
0.42297301
-0.68479168
0.30394733
1.23468542
-0.98948628
-1.90568483
-0.39734179
0.22206266
-0.61139387
0.21675947
0.81601596
1.20685625
0.83982939
-0.50653887
0.34667706
0.01706831
0.68397498
0.04695835
0.58191776
-0.26139486
-0.91850477
-1.30154955
1.46064162
-1.83757877
-0.09422215
-0.04904340
-0.68499738
-1.90853143
-0.21364610
-1.38761008
1.90724921
1.46783161
1.60195887
0.21215482
-1.06119871
0.03643353
0.67821419
0.88002986
-0.49813628
-0.02071328
-0.63247997
-2.11526084
-0.28951299
0.56962329
-0.26060870
0.90280837
-1.41433108
1.27674294
0.63576525
-0.54766572
-0.05194297
-1.86462986
-0.13936491
1.08160532
0.07827183
-0.15768778
1.86153805
-0.68935013
-0.48324063
0.25861380
-0.60388029
0.33749610
2.15083480
-0.00005861
-0.37823761
1.04975414
-0.37600899
0.88469756
1.45952630
-0.90048718
0.22796163
-1.89123154
-0.59281337
-2.09908009
1.73780131
0.55057526
-0.11061332
0.41583318
-0.46316230
2.05917501
0.38009945
-0.99057037
1.23658216
1.79767454
0.93967098
0.48888299
-1.46798182
-0.67799002
-1.02344191
-1.08661771
-1.07582366
0.34419304
0.06039988
-0.03105403
0.20225896
0.84726393
0.83291763
-1.20320439
-1.01530588
0.87096089
-0.02600382
-0.34276444
-0.19807814
-1.26882005
1.09707582
0.34191948
0.53407770
-1.55667746
-0.45749301
0.04345550
1.20896327
1.05192077
-0.51769936
0.01722661
1.65418243
1.46984410
-0.11246480
0.90943438
0.03435531
-0.31801894
-0.46711966
0.02603927
-0.44978642
-2.43636012
0.14291973
-0.28343913
-1.27592683
1.84184480
0.01676182
0.46263534
0.04523503
0.82218617
-0.30435696
2.20285010
-1.83570433
-0.82086551
0.21328144
-0.49888429
-1.76359868
-0.34111899
0.23539472
0.01641513
0.00061534
-0.00036176
-1.34066117
0.02450376
-0.37136459
1.43583524
-0.02912936
0.78591913
1.30031371
-1.45301151
0.83186632
1.14744318
1.26628542
-1.06552017
-1.87816393
-0.74250495
1.22853076
0.10260488
1.36937428
-1.71732914
-2.00976729
-0.02939522
0.86685455
-0.01683521
-0.37728190
0.04284778
-0.26277000
-0.89804268
-0.03023011
0.34855452
0.55222255
-0.39061123
0.70593137
-2.01149321
-0.94856191
2.00235176
1.74719226
-1.74841285
0.30135381
-0.85198665
-0.27483591
0.46860173
-1.08034408
0.39131272
0.63810998
0.61382079
0.78122991
-1.08488452
-0.45494607
0.07725086
-2.83136415
-1.02154040
-0.87691921
0.75625265
-1.12729728
0.94516379
-1.61921406
1.96023345
0.89797378
-2.04963326
0.13609996
1.56852353
-0.42727602
-1.98687530
-0.73054463
0.87506711
0.93269938
-1.54178321
-0.92595232
0.33398736
-0.03587408
-1.64508891
0.56460726
-0.33364007
0.74421424
-0.45298126
0.81096298
-0.47898102
-0.59225118
0.24877170
0.97793514
0.67298114
0.37494209
-0.83594978
0.78520757
-0.24101761
-1.25766432
-0.64754403
1.42380476
1.74898386
-0.04751987
0.24527206
0.18711202
0.93354440
0.84309918
0.23188858
-0.34360191
1.42608464
0.65316737
-0.24801940
0.86018288
-0.86927623
2.16942668
0.35034230
-0.37974620
1.52157640
1.07714605
-0.07084192
-0.52584946
-0.57508677
-1.56474435
0.28214744
-0.08965994
0.04810507
-1.42509127
0.61462229
0.14743458
1.34318078
-1.33218777
-2.33665681
0.19693148
-0.28844967
-0.10665809
0.54933780
0.90042520
0.24661870
-0.74583590
-0.90797311
0.62709898
1.59567881
-0.02729139
1.67636955
1.36442447
-0.02520790
-1.00804317
-1.09856391
0.45870975
0.74920952
0.61060232
1.93999946
0.87090796
-1.12759006
-1.01705098
0.55682951
0.00413556
0.79470760
-0.21895905
-0.54413557
-0.10340548
-0.09443943
0.43496576
0.74654996
-0.99250120
-1.47869480
1.82997477
-2.13776612
1.40610528
0.24039073
0.44122544
0.52250057
0.38119435
1.17805099
-0.51995903
-0.05192688
-0.43900061
-0.60231060
-1.08578074
0.00451093
0.17330661
-2.31108761
0.49492702
-0.39818144
-1.59056842
-0.69848329
0.57685703
-0.77959764
-0.53135622
0.83296537
-0.19162850
-1.54193103
-1.85622811
-2.11023378
-0.52746040
-0.85672843
0.18078701
0.51008469
0.39094612
-0.43254551
1.71687591
-0.00805195
0.72031641
0.44000879
-0.55922264
2.45929909
-0.67891520
1.63722110
1.49928558
-0.59561187
0.00876027
0.11361732
0.00102460
0.92686731
1.62492228
-1.01397514
-0.53188843
0.26850787
0.39989793
-0.13544638
0.01643131
-1.09490132
0.55790991
-0.94965065
-0.30077648
-0.76046908
0.00154383
-0.17662317
-0.83953935
0.44904843
-0.80990672
0.00145319
0.51496518
-0.67810196
-0.35232586
1.13535631
2.00890422
-0.74895608
-1.64582634
-0.04512965
0.51179487
-0.97095406
0.48339519
0.28479901
0.27362835
0.51221204
-0.43312073
-0.31688556
0.26946592
0.40136588
-0.21404281
0.25240603
-1.09635925
-0.87947726
-2.77712178
-0.07939309
0.40966547
1.04438627
0.06657529
-0.24116395
2.44192791
-0.21134304
-0.45238662
-1.65384901
-0.93895400
0.67070824
1.04223001
-0.74707854
0.40957165
0.08310691
-0.97078258
-2.13069296
0.20459884
0.86221868
0.74522048
0.91826969
-1.20234847
-0.56107724
0.29448602
0.86878830
-0.60269350
-1.20139396
2.07014561
0.15787885
0.13490471
0.45007777
0.96710277
0.04993865
-1.62862444
0.25753835
0.18362430
0.91704869
-0.24585260
-1.03532553
0.02877172
-1.88604009
0.06181330
0.19322614
-0.04491940
-0.41184276
1.50443554
0.69937092
0.66101891
-0.55638349
-0.17210482
-0.10536537
0.39642420
1.11380887
-1.40132177
0.50567055
1.21498168
-0.24094039
0.30399674
-0.82671881
0.98166960
0.68061119
-0.20765363
-0.46906993
1.64626014
-0.29006734
-0.45460168
-0.30546910
0.44648600
2.36870742
-0.25417617
0.42249551
1.23590982
0.69894141
0.53440201
-0.12835395
0.19299123
0.16870978
1.86875284
-0.74860537
0.83842051
1.05258048
0.85994542
-1.85459483
-0.07763088
0.06144586
-0.09782532
-0.42359999
2.02206683
2.18752718
-0.23769321
-1.54498780
-1.08087635
-1.29191291
0.31362560
0.64354891
0.05279868
0.20839781
1.64176607
-0.08879203
0.49014494
-1.76843333
-0.83340204
1.38275266
0.17250602
1.54347718
0.51152462
0.37660220
0.05425721
-1.22439492
0.63768768
-0.21942158
-0.95914245
2.36812210
0.60270762
-0.97616965
0.01808335
-1.43336058
0.67280072
-1.51489866
0.35517952
-0.08900966
0.08655768
-0.51474351
-0.17579982
0.49110404
0.92195767
-0.55191493
0.90273523
-0.99186480
-2.10402679
-0.78025949
-1.14949763
0.40181163
0.99172843
0.93876988
0.47471166
-0.95554620
1.22588766
1.82037663
-2.22526526
0.07259428
-1.20111501
-0.07822885
-0.46605003
0.96399385
1.18556070
0.54293954
-0.35206717
-1.08529222
0.19273293
2.49019861
0.76286620
0.20066543
0.07625212
1.72899258
-1.37980700
-0.41731837
-0.16323029
-1.86381519
-0.51872110
0.80745459
0.97991949
0.57774770
-0.53078163
-0.79392022
-0.95077682
-0.66929865
0.97532308
0.42490554
1.97270238
-0.85575050
-0.48066032
-1.57390320
1.34118390
1.26493084
-0.16331379
1.11663449
1.40496778
-1.49010992
-1.94250047
-0.15207452
0.03955565
0.07690026
-0.05990278
0.89411765
0.85774571
-1.36654210
-0.23395757
-0.20150079
-1.00301266
-0.38983646
-0.76279515
0.93416572
1.18914020
0.72121280
-0.03771355
-0.09444005
-0.49445298
-0.72948068
-0.58062655
-1.34963465
2.56029058
0.61195332
-1.66256499
-0.01451595
1.33990347
-0.22396983
1.74842525
0.62240195
-0.20074970
-0.63011873
1.89676607
1.11514735
-0.61414510
0.24774133
-1.01183212
1.22795391
0.01272562
-1.01523840
1.13558602
-0.88954318
0.73362631
1.20577955
-0.03511269
-1.27798748
-0.18507491
-0.86644739
0.07388219
-2.60546899
-0.68893850
-0.04984210
-0.54238695
0.04093038
-0.45827606
1.01763093
0.07764712
-0.14245351
0.67365605
1.49112809
0.49661300
-0.15544841
-0.98189372
-1.82137883
0.60454804
0.67191368
1.10859561
-1.16786659
-0.19624762
-1.14745164
-0.17711562
0.70028901
1.33679128
1.63622224
0.97883463
-0.05664074
1.75275552
1.37713361
-0.84046090
0.35412851
-0.71051317
1.60712266
1.35967505
0.66835642
0.27172357
0.45257750
0.93638247
0.52115273
-1.35341144
-0.00310383
0.65447974
-0.94919926
-0.05346238
-0.60923928
-0.41281861
-1.18979597
-0.95376915
-0.42064670
1.51975083
-0.45995665
-0.07439268
0.72682923
-0.45297751
-0.00310762
0.62820435
0.19465786
-1.85652900
0.89067739
-0.15359725
1.47276652
-0.53207308
-1.38760567
0.70410281
-1.01919734
1.10287392
-0.48797435
-0.53671277
-0.00473935
0.83804560
0.78706688
-1.36802673
-2.53115535
-0.89834815
0.83797598
0.74690729
-1.23108923
-0.59706295
-0.72227651
-0.54433328
0.39679936
0.61838180
1.22190166
0.02783403
-0.58663297
0.85082918
-0.62654859
1.11823595
-1.17872143
0.89715511
0.17737962
-0.33398208
-1.94046223
0.24320422
0.11430636
-1.15578806
-0.78777087
-0.15935351
1.86953509
1.67792559
0.92441046
0.58673567
0.58672494
0.42100829
-0.35933504
-0.51863599
-1.27733779
0.95637292
-1.84899199
1.44622922
0.36248332
0.46680108
-0.95766056
-0.04522920
0.17548037
0.56187755
1.98773003
0.80053973
0.35072127
0.14117412
-0.13002984
1.52523732
0.92880714
-0.50768083
-0.23674054
0.91149902
-1.07087731
-0.06335500
-0.62145150
0.71893126
0.91745216
0.11838069
-1.03636587
1.57262146
-1.01855159
-0.23166665
1.57929194
0.88263422
1.84333014
-0.99749029
-1.66103303
-0.07668725
-1.20629048
-0.56533730
0.62091166
0.69825542
0.61444855
0.01560985
-0.03361907
-1.15363443
-0.06098900
-0.54237896
0.22203805
-2.05225730
0.67778552
-0.13122065
-0.85479313
-0.54796690
-1.64555478
2.33433247
-0.17359711
0.41013351
-0.09250370
1.22963452
-0.97511667
-0.11977761
1.10223043
0.44659847
-0.35864931
-1.49040174
-0.27973154
0.99125510
-0.66366017
-0.21743834
0.79187536
1.68960345
0.50693005
-0.53515297
-0.16034408
0.26369464
0.99506408
-0.28809869
-0.14243497
-2.11447453
0.87102133
0.50075305
-0.63744086
0.06899124
-0.71411180
-1.06482184
0.45753828
-0.91595167
-0.78908199
-0.03321600
2.08943391
-0.08078092
0.05203253
-0.05406813
-1.05810452
-1.08838916
-2.00880265
0.79167289
-0.87506121
1.16434026
0.71878809
0.82616132
-0.21051310
1.16262400
-0.19909491
-0.61532706
0.25191644
-2.25859308
1.80799162
-0.01579488
-0.80812573
-0.09210798
0.15069440
-1.82929337
-0.73441815
-0.75137198
-1.16112781
0.33952531
1.62693906
-0.28125307
-0.81877285
-0.03737627
0.00497492
0.59833312
0.58753794
-2.47657514
-0.04280937
-0.02720612
0.35849035
-0.78552568
-1.34834707
-0.04163291
-0.06318647
-0.76510173
-0.17848638
-0.34688979
0.03910416
-0.08598509
1.50043356
0.43806064
-1.27748525
0.38843191
0.17991704
-0.41519725
-0.78266466
-1.39092827
0.10824732
0.59503633
-0.19253078
-0.50355142
0.86007720
-0.46359441
-1.07081497
0.39307657
0.55632532
0.83956492
-0.49931112
-1.00666988
-1.27771318
-0.25156441
0.14883019
0.15351218
-1.26537263
0.18928120
-1.41038859
-1.37049568
0.87336755
1.56336558
-2.87718749
0.15658279
-0.15101077
0.85242873
-0.11389790
-0.40722376
0.20632541
-0.72287631
0.37605718
0.05654732
-1.54133034
0.21945930
0.28772214
-1.94222558
-1.60143483
1.34330225
-0.85981560
-1.47387373
-2.04744267
-0.33740070
0.61711454
-0.72758961
1.55578458
-0.77227336
0.23388764
-1.50519347
-1.98077023
-0.50998771
0.49398151
-0.46546361
0.72406697
-0.85848999
0.19687133
2.20454288
-0.88377208
-0.76324171
0.96434981
-0.37754038
0.69285417
-0.16710286
-0.83492279
-0.51992768
1.52293766
-0.14920671
-0.24431151
-1.37579525
-0.17437635
-1.61412179
-0.08724529
-0.32179567
-1.09746921
0.76398695
-0.27651638
-1.75187588
-0.48944572
0.40589395
-0.72000641
-0.15963908
0.82687587
-0.10752524
0.72728831
-0.71456921
-0.56885177
1.59799147
-0.88566935
-0.95525670
0.57739985
-0.22778140
1.69491732
0.00084746
-0.05962606
-0.58092541
-0.39937958
-0.66283154
-2.89771605
-0.61862290
-0.48165578
0.81712902
0.49514672
-1.31462097
-1.57096601
-0.67961413
-0.78969526
0.95020121
0.13583246
0.61763239
1.31742263
0.85196197
-1.53754818
0.91112703
0.62423575
-0.19990401
0.78963405
-1.66518080
-0.83438504
0.87011236
0.79582489
0.52545381
-0.30841282
-1.40439808
-1.22056127
1.22951031
1.39989710
-1.54064417
2.08583808
-0.20112966
-0.80499011
0.10200680
0.42373732
0.92004406
-0.28308186
0.16330318
-2.63905072
-0.50227374
0.40818897
0.46213043
-0.31716028
-0.47830427
0.07490803
-0.65572280
-0.04894315
0.90942955
-0.29877648
0.69455659
-0.04844933
0.51820344
1.74588978
0.14862792
0.58765203
1.39036906
-1.29128242
-0.56958199
0.20085590
-0.10923932
-2.14686704
-2.26791668
-0.85178274
-0.49384579
-2.38765979
0.24772093
-0.28680170
0.21594907
0.54436320
-1.93477440
-1.19771528
0.30372804
-0.86442274
-1.74208724
-0.48804188
0.43893716
0.10029396
1.59054494
-0.73431569
-0.08491189
-0.39847010
-0.23756967
-0.69414383
-0.85369778
-0.34701040
-0.71481335
-0.42102730
0.29950222
-1.21940923
-0.30418739
-0.94714808
-1.00556660
0.79195595
-0.24160624
0.18711202
-1.91595399
-0.76784497
-1.43285906
0.53583455
-1.79580009
1.19080818
0.95919412
-0.47107333
1.01867986
0.07907702
-0.75238276
-1.10558510
0.99285674
-0.49847367
-0.30757222
-1.37492967
0.65275025
-1.17563200
1.85428798
-0.45993260
1.59325933
-1.14878762
0.24188167
2.17772961
0.09003972
-1.45664632
-0.90329641
0.73985445
0.30510223
0.03936282
0.54735214
-1.88912034
0.09651637
1.35577655
-1.28078592
-0.76729220
-2.55358458
-0.09120252
1.28341222
-0.10249643
0.86513758
0.02643373
-0.99205351
-2.13838696
-0.21139340
0.36069646
-1.12138867
1.66317630
-0.79323667
-0.86710447
-1.28537953
-0.63244748
1.51206517
0.90035486
-0.07470458
-1.13949215
1.20572126
0.32795483
-1.70427918
0.72088474
-1.96372402
0.69225085
-0.11084274
0.38413602
-0.25626495
-0.34762472
-1.48382032
0.15078270
1.24290693
-0.79539835
1.77502382
-1.53903937
0.74604398
0.02323088
0.82296556
-1.37008870
-0.20774876
0.23419642
-0.28993669
-0.33208215
0.50399613
-0.32369182
-0.13408962
-0.52381963
1.14647830
1.06121993
0.18597917
-0.73953277
2.29699755
0.06410965
0.43760374
-1.23037314
-0.09568296
-1.75303948
0.56435448
1.35420942
-1.17848361
1.31019461
1.88742721
0.44959873
1.19030130
0.06898883
0.55118555
0.25033635
-0.77843440
0.48167282
-1.41598177
0.44076106
-0.20173821
0.30146557
-1.39420033
-0.27778399
0.18949200
-1.15494287
0.02226049
1.18481338
1.18606424
0.48585340
-0.51505744
-0.04379670
0.56570262
-0.68264884
0.21676344
1.81084454
-0.51527017
-0.08598112
1.30362904
-1.02350867
0.34489354
1.12179685
-0.15498294
-1.09409058
1.06044090
0.65090299
-0.06900262
0.04147984
-0.29523969
1.01347113
1.69468331
-0.59087682
1.90508807
-0.20959686
-0.46407798
-2.19458485
0.98237509
-0.99615937
-1.04865611
-0.25062364
-2.67700696
-0.20892189
0.02115331
0.38586676
0.11185383
-0.81781912
0.29584688
-1.51726151
-0.32469517
-0.06207404
-0.87364161
0.10515309
-0.14476420
0.75152767
-0.78783226
0.89285082
2.45256543
-1.12025654
0.90499282
-0.34223235
-0.30478653
0.16955893
-0.78012228
0.49546751
-0.94034219
0.18677090
-0.00325734
-0.02273946
3.02785301
0.10289713
-2.52517390
0.03657764
-1.17525172
0.38054511
-0.27012315
-1.77853954
0.64722341
-0.41454342
-0.71941727
1.22619009
0.96308726
-0.22952493
-1.62702835
0.45823130
0.16894741
-0.54789919
0.34875119
-0.07348477
1.34256005
-0.77485430
-0.09022232
0.37875196
0.59960270
-1.22794521
0.00988915
0.34032264
0.52907139
0.76025701
1.30258465
0.48848259
1.04962158
-0.07014575
-0.19121034
0.09309343
0.47414729
-0.85209149
-1.54995370
-1.37474632
0.30969819
-0.95315915
-0.78064287
-1.08537281
-1.20710671
0.76106334
-0.53642493
0.91978693
0.04805217
0.25054729
1.30562937
-0.31807715
0.24771659
-0.62690461
-1.23126435
-0.08420608
-0.61305797
-1.03964496
-2.38440681
1.75143123
-1.25805569
-0.42703539
1.45656621
-1.00434840
-0.80406392
-0.74998200
1.06189215
-0.89866602
-1.98575735
0.76295441
0.69370580
-0.88216931
-1.62211788
-0.54718333
-1.65879023
1.09164608
0.77941620
-1.67038178
-0.06812943
-0.81269473
0.06996286
0.05494045
-1.44942582
-1.21122158
0.54429805
-0.39683107
-0.50283629
-2.12684917
0.58789629
-1.24474585
-0.68015474
0.96218455
1.16298544
-0.01729518
1.60985255
-1.18638587
-1.46451962
-0.58678532
-0.05107865
0.06145133
1.40088594
0.48617998
0.31811786
0.16054496
0.29196107
-1.07697177
1.23014212
-0.85519797
0.88626540
-1.82257783
0.46877447
0.88523811
-0.95614934
-0.36958137
0.39879724
-1.22958469
-1.22708023
-0.26305178
1.67706418
2.71123791
0.81910813
0.04261099
0.73273963
0.68382806
-0.84449703
0.26889691
0.22652385
-1.01867437
0.55748051
-0.52991378
0.14005026
-0.35989028
1.12600553
-1.51021755
0.11183770
-0.24241199
-2.29405069
-0.25372410
1.36212969
1.91414905
-0.08358488
-0.35524407
-0.60637140
0.48360500
-0.15677640
-0.23329273
-1.31411397
1.45348942
-1.85934317
-1.37591767
0.88763309
-0.58117098
0.00929731
0.27715766
1.28685176
-0.39842737
0.29210019
-0.20752203
0.74727011
1.19248164
-1.61312783
-0.59017855
0.39314553
0.81801254
-0.09609825
0.18298663
0.07681478
0.61891901
0.72512126
1.26055348
-2.46797895
-0.78537649
-1.83781028
1.42624009
0.60860246
0.87921053
0.26684061
0.17394939
0.57029504
-0.85972458
0.31988400
-1.64273787
0.59722942
0.31326631
0.55076802
-1.21022356
1.45464206
-1.05298328
-1.68695247
-2.17617011
-0.26490468
-0.40923604
-0.07637147
-0.52622235
0.08739848
-0.00082275
0.49140906
-0.83548963
0.36157489
-0.79756868
1.38194990
-0.34406221
0.39683992
1.75641048
0.85380685
-1.11930621
-1.33394289
0.28969401
-0.10845521
1.19462025
1.82990885
-0.52603948
1.31183159
-0.74069273
-0.19473220
0.17222834
1.84243464
-1.45826352
-0.47106573
-0.26184246
0.08200989
1.81049800
-1.86913109
-0.06212745
0.73153085
0.11499172
-1.00960934
0.12362074
1.66717303
-1.18576157
0.02650758
0.00158260
-1.68114531
-2.28501678
-0.01365971
-0.03376442
-1.53478098
0.20687948
-0.26255563
0.72263634
1.80119705
-0.47381350
2.27434635
-0.43930155
0.39740297
1.99152637
0.16005623
-1.84133923
0.60032213
0.11035725
-0.03129708
-1.61082447
2.51505566
2.79540777
-0.41098467
1.26022220
-0.88123780
0.19833411
-0.22060396
1.10026157
-2.03206325
0.13481307
-0.86154026
-0.24528696
-0.27280954
0.89389741
0.40866140
1.27769172
-1.62499034
1.65266275
-0.86251533
1.72055757
0.73492032
0.70523965
-1.15949917
0.99203414
-0.34479100
-0.65696508
-1.29639399
1.43889678
0.15083224
-0.32697630
0.40604669
-0.74776363
-1.71035314
-0.04655292
0.89898038
1.13838589
2.37497640
-1.11977124
1.90149415
-0.47130367
0.31538212
1.22917867
-0.44936481
1.21953070
0.58908242
-0.14869033
-1.28238451
-2.14760470
-0.86896920
0.58137733
-0.41106093
0.84422761
-0.39156169
0.53857619
-0.63605458
1.00463152
1.12315154
1.47031605
-0.65907836
-1.83407068
-2.48098636
1.69444740
-0.24912705
-0.49694332
0.99848533
-0.14604622
2.39633250
-0.38528645
-0.68945467
1.25018346
1.06400466
-0.71821582
0.29341233
-1.37471485
-0.68672460
0.56206566
-0.87856251
-0.81557012
-0.24110693
0.70974439
-0.05373161
0.77009088
-0.84423923
0.23202857
-1.56866980
-0.21766435
-1.08782387
-0.58871967
-1.36108279
-0.67906976
-1.43971777
-1.44121313
1.36757243
1.65689456
0.94480962
-0.65767819
0.45814773
-0.86207712
-0.22379391
0.88178396
-1.08462346
-1.40697920
0.27875304
1.82718015
0.12882569
0.40708134
-0.36604476
-0.22882067
0.33444637
-1.99237859
-0.55029285
-0.54588175
-0.34968194
0.63823229
1.50200498
0.92251784
0.51786798
-0.48840660
-1.59200180
-0.93663228
0.83600003
1.58077395
0.54159951
1.62659526
1.53321123
-2.13025689
-0.95803905
0.46555057
0.21249749
0.57042354
-0.96704555
0.37511316
-1.60904932
-0.01961558
0.10751713
0.62629527
-0.09410457
2.07807994
-0.99641120
-0.78419012
1.68291795
-0.48680344
-1.27361012
0.54642719
1.49773014
-0.82901531
-0.35911652
0.61656129
0.01493808
-0.31677392
-0.60886359
-0.00362863
-0.42624706
-1.11765599
-0.57641661
-2.71368599
2.05237412
-0.91284060
-0.56268239
-0.45461571
-0.83053106
-1.59594715
1.63086772
-0.68588096
0.83228648
1.07705796
-1.69325626
1.69068515
-0.83976328
0.20283964
-0.70723790
-0.84859043
1.12830317
-0.49096751
0.78598022
-0.88432872
1.00162613
-1.18602824
0.44933775
0.96191466
-0.29387331
2.43167663
0.49059096
-1.13806808
0.24679279
-0.85714507
-0.01754286
1.24251294
0.44667679
0.71459752
-0.42478615
0.18038678
0.20880529
1.92675173
-0.77737319
0.85520375
0.32107481
0.43772882
-1.12329030
-1.41677475
0.88653976
0.51161939
0.83879882
-1.80056715
1.43011892
0.09899814
0.76588780
1.60994864
-0.42013142
0.49928537
1.12264025
-0.04372986
-0.53344136
0.53188115
-0.55112523
-1.29929054
-0.09835551
-0.98050547
-0.21537969
-0.88630593
0.57580817
0.05558571
-0.78169221
-1.05397630
0.90753752
1.11405802
-0.83503306
-0.02653858
1.28473771
-0.29702690
0.75495899
-0.85616082
0.82423037
-0.78705043
-1.55710101
0.61174804
-1.12486017
0.57991093
0.26165727
-0.08438472
2.08067226
-0.04363051
0.94242585
1.93854809
0.04843985
-0.34771124
-0.57202053
-0.70012587
0.06913931
-1.08250654
0.29420918
-1.95912325
-0.76837301
-0.30627108
-0.66299516
1.36681116
-0.06834333
-0.06133950
-0.03892463
0.02481835
-0.03366302
1.51552093
1.05139410
-2.75532413
-0.50433743
-1.71604550
1.09162128
1.74297178
0.22965460
1.04912436
0.91670102
1.36264944
-0.99964046
-0.18276891
1.30322838
-0.84697431
-1.29840434
0.69181997
1.99065256
-1.56363678
-0.95821512
1.89267159
0.58162647
-0.12836069
2.16147161
0.49925315
-1.12369084
0.59659642
0.17343180
0.62459880
-0.79279464
0.76850230
-0.56727332
-0.05652231
-0.81591505
-0.55518454
0.42975792
0.78847682
-1.56036699
-0.62097955
0.89406931
-0.16276123
0.03475112
1.60782623
-1.27312720
0.21358280
1.25688589
0.40154618
-0.31829935
0.89388818
-0.22629602
1.03945971
1.48975360
-2.00278378
2.80736375
0.61617196
-0.07517440
-1.38515997
1.46557033
-0.46295372
1.39730287
-0.39740634
-0.42706624
0.07286417
0.81590426
-0.55160123
0.46356103
-0.29396442
0.96418881
0.69559914
-0.08897857
0.36696082
1.09507263
-0.55385411
-1.49022400
-0.76132011
-0.24635416
-0.28568125
-0.96900320
1.12304914
1.17417753
0.74293947
-0.45387515
-0.34711930
-1.15569079
-0.68704647
-0.87148970
0.15128344
-0.86978179
1.49719274
0.51561069
0.54343545
1.20518816
-1.03050017
0.91223574
1.12658250
-1.47527516
-0.52023202
-0.36636555
-0.00226995
0.46801987
-1.38580847
0.30799788
-2.24138069
0.70236444
-1.22005236
-0.34821397
-0.01519315
0.25410473
0.18526983
-0.17521037
-0.04691964
0.03742227
-0.68610573
-0.51710904
-0.50472665
-0.96172947
-1.05315661
0.17045732
0.64392567
-0.79234403
-0.90536714
-1.87852168
0.50493616
-0.25289500
-0.98501956
0.77731633
1.05842972
0.70722741
-0.62407345
1.95307434
-1.30613732
0.31722564
0.38423175
0.64012849
-0.60057944
-1.59681273
-0.83642054
-0.57227075
0.85625476
1.03278351
0.41154465
1.27243149
-1.47090960
0.55356312
-0.24453948
1.00513971
-0.08124296
-1.11450529
0.73840266
0.15781665
0.71477568
0.75247735
0.04276201
0.87108779
0.58530593
0.26006138
0.31319904
0.23305321
0.63058698
-0.60747743
0.46318653
-0.18319482
-1.37596416
0.12326915
-1.35444880
-0.65955019
-0.00210397
1.98247027
1.34009707
1.13696611
0.57765394
0.37999755
-0.21710525
-0.40581924
1.49870932
0.83073384
1.64546514
0.24409011
0.62316787
-0.75855511
-1.17593718
0.14709134
-0.70109117
0.51454526
-0.53750366
0.40828583
0.93114305
0.59258407
-1.01725841
0.10695898
-0.35299036
0.46516079
-0.49482247
1.39776301
0.00827644
0.46996737
0.47551128
-0.90094340
0.55956119
-0.78371817
0.99645931
1.75874412
-0.98624438
-0.90889776
-0.86330932
-0.71711081
-0.16254817
-0.31693277
-0.10983715
-0.39542484
0.70333308
-1.91193700
-0.00135753
0.69437903
1.34263563
-0.55001438
1.26973808
0.20884870
-0.36172485
-0.76140535
-0.33346373
-0.90969718
1.80108392
0.69966406
2.37172675
2.13735104
0.67612880
1.56229663
-0.33068335
-1.17639863
-0.13419773
0.31719264
0.36394718
1.17348230
-0.63329393
1.31713355
-0.20855433
1.46161830
-0.41332898
0.93473077
-1.00212324
-0.13258727
-1.24864316
0.76835191
-0.31142917
0.85168308
0.30787006
0.15109459
0.52282131
1.47742093
-0.26867726
-1.21565378
-0.00571118
0.02235855
0.16631080
-2.06920862
-0.02784312
-0.33514932
-0.48278558
-0.44584477
-0.88316560
0.66957122
-0.50749069
0.49927697
-1.51854324
0.77800077
-1.26507127
-0.22968771
-1.40995586
-0.75057292
-2.39783740
-1.35042858
-1.24703729
-1.22409117
-1.75709713
-0.70058334
-0.97398645
0.20239554
1.72328997
-0.60541177
0.07694791
0.00301047
-0.13186058
0.08002302
0.06273886
-0.47426289
1.80134928
0.24316728
-0.38776022
-1.23395336
0.47524488
0.77931863
-1.03175163
-0.09665124
1.17461085
-0.54449481
1.24732471
0.05070593
-0.05068077
-2.54953289
-0.14127026
-1.58373380
0.49274015
0.12749504
-0.50999528
-0.65901929
0.13945560
0.30408284
-1.21302092
-0.72288185
0.16921325
2.53581810
0.24812543
-1.32415998
-0.07378349
0.10477382
-1.43271220
0.35909301
-1.54131401
-0.74512935
-0.39302355
0.62426531
0.87579519
0.38504428
-2.03944302
1.58546245
0.79530436
0.45168382
-0.47548416
-0.40986541
-1.41129315
0.60548836
-0.03863245
-0.65504587
-0.00153300
-0.28759086
0.04224131
-2.04447055
0.25813413
0.98934513
0.12208121
-0.15002392
0.83292907
-1.22742498
-1.24177504
-0.04375698
0.17305528
-0.23688067
-0.77247411
1.06852317
0.53197569
-1.12733150
0.39494026
1.73493159
0.51263678
0.90794355
-1.52766168
0.86177367
-0.58491319
-0.66956794
-1.25700259
-1.05415702
-0.50197554
0.02000120
-1.84305453
0.45010683
-0.08430717
1.36658561
-1.20592189
0.82301706
0.14603460
-1.12020493
-0.56343532
0.87220806
-0.67463201
-1.87617600
-0.25770345
0.36393887
0.99178869
1.21210849
1.08841074
-0.86435539
-0.19048887
-0.64981627
0.05462785
0.15381451
0.20185983
0.17887329
-0.75444609
1.60476387
0.25101191
-0.57248592
1.32903636
-0.18103661
-0.22587122
0.48888037
-1.00903356
-0.37081444
-3.36128044
-0.29589790
-1.92257309
0.17886524
-0.76254010
-1.02776909
-0.18655160
0.75069153
-1.82264912
-1.41958654
1.20406604
-0.63820374
1.20429468
-0.46716291
1.40556777
0.02269560
0.06934653
1.46253228
-0.06331730
1.11026216
-0.65509707
0.64913005
0.42578229
0.88327950
1.31995797
-1.24035060
0.29210761
1.97251415
-1.29097497
-1.51982784
-0.78133100
-0.04126599
0.24507357
-0.75289828
0.72371101
-0.95296198
-0.07651576
-1.29547608
0.61680281
-1.35129356
0.43594810
-1.28472638
-2.67845249
-0.90578622
-0.16720141
-0.97055960
0.66664040
-0.36318994
-1.48264289
1.95139802
-0.90984410
2.31566405
0.01687633
0.69792324
-0.00726860
0.47173783
1.35492086
0.13696854
-0.81247520
1.23042941
1.22737575
-0.29556131
1.17197418
-0.58327186
-1.17832232
0.95414394
1.03941119
-0.42127004
0.79833126
0.08817470
1.38354337
-1.02502227
-1.41796052
0.87948477
-1.31034994
-0.55020577
0.21809931
1.24279630
0.60443938
-0.31371424
-0.81579643
0.66907501
0.42000946
-0.62812102
-0.40715349
-1.40709043
-0.48141646
0.46154052
-0.59259087
-0.28672519
-0.04968154
-1.12075269
0.93476254
-2.01283407
1.24463081
1.04438174
0.46250910
-1.84965909
1.27360666
1.20586717
-0.62632549
-1.64436245
0.73789215
-2.44035697
-2.57413650
-0.68364441
0.61893129
0.99416226
-0.67243528
-1.14343286
-1.05507076
1.00034833
-1.40506566
-0.96074718
0.50002116
0.70401388
0.62600839
0.44352901
0.99844539
0.98200721
-0.55652320
-0.25869194
-1.89573884
1.00060868
-1.23659968
-0.15027966
0.48114586
0.50558996
0.73815441
0.28455874
0.38452122
1.14088678
-0.91558075
0.77133816
-0.06868839
0.46889159
0.66898102
-0.29602057
-0.17098720
0.05571807
-0.59878922
0.64017200
-0.24962650
-0.34483159
-0.69984508
-0.35803938
1.13287568
1.02326655
-0.25900882
-1.07375586
0.39822465
-0.31362057
-0.29450211
0.77499431
0.12436462
-1.45385849
-0.05310027
1.19266963
1.22556889
1.51204193
-1.61499810
-0.46790826
-1.65084147
-0.90945619
0.65303940
1.06104434
1.28205442
-0.53102499
-0.50178772
0.36860561
-0.93693429
0.99623233
1.09516454
0.53074342
-0.38074568
0.38856578
1.30904555
-1.60320199
-0.79595000
-0.65595883
0.96900910
1.22169733
-1.12392509
-1.38244247
0.23128177
0.56148124
0.42843634
0.61423159
0.68488353
1.73173261
0.32558700
-0.62904298
0.60589391
0.01153706
0.81101483
1.00591660
0.97525263
-1.10106313
0.40543896
0.54742485
0.13608985
-0.71898192
0.81639206
-0.62557632
1.06996059
-1.23659372
-1.46881342
0.84076971
-0.22675748
0.04198133
-1.74046147
-0.16246352
-1.68700147
0.60029203
-0.43159452
1.24564517
1.15840495
0.87076968
-0.95218098
-0.70987356
0.40644115
-0.09124611
-0.49324885
-0.74095833
0.07418133
0.90551502
-0.92619026
-0.26010475
-0.43785673
-1.17563403
-0.67090285
0.44694167
0.55735636
0.78183311
-0.91719323
0.13884006
-1.08630276
-0.68982410
0.45055178
-2.17796183
-0.22471447
0.81158006
-0.60220766
0.32067016
-0.03464049
-0.29177853
-0.58071238
-0.05589317
-0.93059063
-0.02558820
-0.62293130
1.92609191
-1.20619988
-1.00530827
-0.69286311
1.17289221
1.47173858
-0.03000934
-1.33760560
1.56202924
-0.47487685
1.29910982
-0.10527917
0.32798615
-2.27257943
-0.55323732
1.19490170
1.96706378
0.88808513
-0.95725495
0.02039077
1.62551022
-1.39025664
0.36846685
0.90341920
-0.52611572
0.83475071
-0.61412817
-2.28498411
-1.42975295
-1.82491910
-1.12799716
0.84981537
0.20804815
0.34619159
-2.19959736
1.80320609
-1.25805640
1.15528166
-0.37041447
-1.30512023
1.79775572
2.47227168
-0.89214033
-1.41379595
0.64377129
-0.43261799
-1.00088036
-0.44436681
-1.36338115
1.40630567
1.13653028
0.80497050
-1.00190949
1.15294707
-0.90720534
-0.44858119
0.22006214
-0.29005733
-0.42238843
-1.12550950
-1.03432703
0.70384461
-0.90225840
-0.05940303
0.43633264
0.48789918
-1.07513070
-0.43600830
1.15820384
0.50071698
0.35592866
0.26884440
-0.44550371
0.25875491
-0.55213904
0.62072390
1.45810068
0.50532544
-0.48411116
0.36903748
1.07734811
-0.20140447
-0.26778066
-0.23362206
-0.74921972
0.87111962
1.25921881
-1.53099525
-1.41610646
0.91219848
0.42054352
0.27975526
0.91281974
1.72494543
0.35655352
-0.28512362
-0.16306640
-1.29207551
0.00490231
-1.24596810
1.84578657
-0.34385252
-0.22859712
-1.49464428
0.28427055
0.38805607
0.03480084
0.48678020
-0.55358076
1.16821003
-0.45734954
1.80132997
1.91752625
0.25306830
-1.90001583
-0.45708048
-1.45974743
0.61679560
-1.81709194
2.67653823
1.78489435
1.65218282
0.24636331
2.30115366
-1.80452645
-2.92924762
1.07670164
-0.37616536
-0.24503428
-0.25871029
0.40996298
2.04917288
-0.23229131
0.02340935
-0.53078151
0.49950686
-1.44424844
1.48876595
1.35363936
0.41638720
-0.37118813
-0.21668026
1.08637834
0.27228701
-1.19690633
-0.75776535
0.42682564
-0.42574379
0.05869662
-0.13106027
-0.67144799
0.47993892
0.49159151
-0.91365898
-0.31681788
-2.92402077
-2.68990183
0.90806508
0.22695515
-2.07842708
-0.96588641
1.41088152
1.23201871
1.23102009
1.58824265
0.77278984
-1.12098670
-0.16179299
0.13392286
-0.07816423
-1.03236842
0.36983365
0.78885311
0.88756990
-1.04858267
2.33646345
-0.36579189
1.60511363
-1.07403553
0.44824374
-1.97004187
-0.68284708
-1.15996337
-0.09149268
-0.17512618
-0.65993315
-0.80665040
-0.16339298
-0.27445719
0.05191110
0.01900335
-0.51147217
0.33966768
0.44611832
1.40870607
-0.85842067
-0.86661279
0.05929658
0.43518826
0.11562105
-1.15353394
-0.05581552
-0.34941664
-2.49933529
1.03571761
-0.74647170
1.40174103
-2.00189471
0.31102252
-1.36948371
0.73017573
1.33962464
-0.49796933
-1.65600622
0.10695408
0.35632548
-0.18084857
-1.11546147
0.55150682
-0.48577079
0.66596925
-0.21194266
1.97609806
-0.16408117
-1.04943824
0.27110556
0.21217708
-0.47750461
2.08705783
-0.56154877
-0.70277542
0.01669886
-1.41361094
1.45434141
1.72909224
0.98771864
0.40374953
0.18314165
-0.18140641
0.78498536
-0.24458510
0.87401873
0.69983059
-0.38945642
1.36882675
0.93558776
0.41980588
1.80110550
0.25529987
1.51091528
-0.31192809
-0.39322650
0.34042862
-1.32922995
-0.09205847
-1.52313268
-0.57217294
0.47750679
0.57263780
-0.94112003
0.36751735
-2.36786723
0.42211455
1.32976520
0.30361304
0.81176668
-0.61344570
-0.51170737
0.11908348
-0.36193058
-0.40615168
-0.33994886
-1.03807104
-0.07471752
-0.32871315
1.20830667
-2.88024688
0.54802495
-2.05184436
1.13009298
0.18682678
0.25525996
1.24664891
0.84790075
0.11203147
-0.28731355
-0.13230748
-1.30687845
-1.54080963
-0.35181382
-0.35036704
0.24000566
1.20590591
0.48217812
-1.12906945
-0.16370980
-1.84462202
0.73422772
0.72744960
-0.84288681
-1.01200497
0.01423756
1.75675786
0.45691389
-0.65325344
-1.34029996
-0.53853261
0.58111274
0.11512963
-1.24012136
0.31916568
-0.37428170
1.56797910
0.29399073
1.14137948
0.25059682
-0.40009716
-0.19594781
-3.72703099
0.37550014
-0.72418767
-0.05416302
-1.89639187
-1.14809382
0.13796447
1.23409152
1.22422457
-0.52222139
-1.16902268
-1.03802180
0.00213974
-0.16761179
0.20057824
-0.12322547
0.55899280
-0.38759699
0.85341722
-0.95552367
0.47069663
0.11253379
0.40623307
0.19927281
-0.06395199
-0.82027429
1.09108245
0.90668070
0.02396484
-0.34712586
-0.62404317
1.08881819
1.84116411
0.43469158
-0.87914419
-0.79171264
0.98235774
0.77857316
0.06277025
-1.23174405
-0.02113215
-0.93068874
0.66699100
-2.37399936
-0.21846962
0.51115978
0.53029138
0.42597643
1.46280491
-0.16257425
0.88453656
-0.06141850
-0.86426038
-0.72473270
-1.32222795
-1.30850637
-0.18717737
0.19468987
-0.35713047
0.11196540
-0.27245718
-0.14718792
-0.00277952
0.66985577
0.20946810
-1.20418036
0.91861475
-0.69340634
-1.20413005
1.09276283
-0.59918904
-0.78568918
-0.95642781
-1.39844573
-1.35382605
-2.07581925
-1.37927318
-1.03363895
0.18793593
-0.54167700
-1.71734858
0.24794231
-1.43951809
-0.95803636
-0.46577922
-1.69704056
-0.06748411
0.38267836
-0.39655721
-0.03757019
0.76225650
-0.63541633
-0.27252439
1.10619009
1.00714171
-0.02095297
-0.57576674
-1.34977555
0.16871265
-1.52733600
0.51109803
-0.33342949
-0.37285501
0.68551207
-0.78288656
-0.50077885
-0.41548526
-0.91007525
1.20303953
-0.25167197
0.26458031
0.18551417
1.07894766
0.84580761
0.00376733
-1.41917205
-0.10440165
0.12925519
0.05228815
-0.04737793
-0.76232088
0.77006203
-0.35062531
-1.07493126
1.43644655
-0.79271138
0.06284423
-0.34002945
0.33580902
-1.80681765
-2.62522840
-1.91672647
-0.28924781
1.17010963
2.33808613
-0.05981231
0.18140374
-1.07041144
1.38765979
0.86572033
2.23744249
1.22823584
0.11252200
0.16512628
1.08935428
-0.89291108
0.21898536
-0.51934195
0.11365001
1.31699252
0.88163978
-1.36837173
1.95278311
-0.26523575
0.41106963
-2.34616470
1.08070135
-0.97316033
-0.04066741
-0.91018724
1.23952770
1.69800270
1.27119207
0.43641976
1.52802682
-0.88862848
0.23658900
-0.20385101
0.41414329
-1.02327847
-0.05033493
1.17678154
1.08812273
-0.45896989
-1.02462173
1.14217544
-0.24521191
0.48297417
0.96219677
-0.08121785
1.59145236
-0.05198609
-0.12714785
-1.72325170
-2.16001916
-0.44311550
1.10802329
0.36029071
-0.59454215
1.46546912
-1.33671987
0.61131555
-0.04768616
1.66606116
1.27709901
-0.12671560
-1.36594939
-0.74991024
0.31444246
-0.55743778
0.16287512
0.91321236
-1.55248272
0.37374836
1.49349201
-0.27776554
0.07474843
0.88316101
-0.48911309
-0.45344871
0.90584576
-0.11722160
0.35469615
0.01888603
1.57563412
-0.37132186
-0.32779258
0.38877925
0.26578856
0.46967360
-0.88261288
0.28831634
-0.30422652
-0.47830328
0.39893794
0.27975413
-0.81252122
-0.14865859
0.43298042
0.79393953
-0.15666176
0.31013024
-0.58239889
0.46542045
0.92867500
0.41926107
-0.28777072
-0.82630312
-0.17858151
-0.44356057
-0.06832759
-0.24803291
-0.70708966
-0.46386740
-1.58952332
1.65112782
-1.32281435
-1.38513780
1.15830731
-1.47317660
-1.52915871
-1.22408640
-0.77221268
-0.22005303
0.87907815
0.95277005
-1.62794685
1.03725028
0.18515494
1.04348910
-0.97549564
1.65691507
0.64377987
-1.60933864
0.87066525
0.73372561
-0.20083147
-1.01325822
-0.29395682
0.17562711
0.52621680
0.38111469
0.71534562
1.05377424
-0.61294901
-0.22381675
-0.47711343
0.07139608
-0.39925784
2.00126147
-1.07321584
1.14849067
0.91477752
0.10248134
0.74020875
-0.13540106
-0.32871106
0.71068990
-1.70780599
1.89911509
-0.57527333
-0.89379215
-2.35161471
-0.92183888
0.34895062
0.17276160
-0.87905091
-0.08657477
-0.92622358
-0.79241937
-0.44612554
2.78463483
0.74789709
0.10574237
-1.62120128
-1.98075807
-0.39817393
-0.83678579
0.26935151
1.09807122
-1.51025236
-1.78600109
1.69840133
0.54803717
0.03833187
0.64604610
-1.22277153
2.38049173
0.47811323
1.10781443
-2.01780629
0.12578043
-0.53921527
0.50651693
0.24376722
-1.07655299
1.71458471
0.15395744
0.18511450
1.09451866
1.50196779
0.04402886
-0.23209286
-1.49553692
-2.18879700
0.13946792
2.09799218
0.60693997
-0.04931828
1.47148788
0.25711054
0.95721793
-1.53989279
0.89847976
0.71319360
0.67345577
-0.03564009
0.26158553
0.51701564
1.11015129
-0.20619878
-0.31442562
2.22169375
-0.34126404
-0.09510794
-0.31592882
-1.62749219
-1.12074769
-0.23706309
0.03865203
-0.79672682
-1.88053381
-0.73934114
-0.71525061
-0.85394150
-0.30015221
-1.11131811
-2.06358147
0.12655856
-1.63656926
0.40582252
-0.01764526
-0.03562653
1.63311613
1.02780819
-0.31902906
-0.82195854
1.01870191
0.55468410
-0.97267801
0.27145013
-1.35972762
0.59711134
-0.14072600
-0.11650509
-0.06084542
-0.88837755
1.82631981
-0.23648293
-0.30157629
-0.79834121
-0.26461372
-0.03645050
-0.43144700
1.20706332
-1.55451190
-1.24724269
-0.15872964
0.39053130
0.69467169
0.90157259
-0.26983261
1.08843732
-0.85002565
1.23649740
0.19515976
-0.99261558
-0.99668044
0.33551010
-0.04195371
-2.04398346
-0.81459284
-0.32816386
0.94872504
0.38644630
-0.83639485
0.22988868
-0.39856610
0.96352857
0.32446077
0.11368827
0.76099157
-0.77323645
1.26836407
2.00725079
-0.51366520
0.73850030
-0.15183400
0.15224694
0.82495087
1.80770981
-0.71268469
0.48253843
0.82482880
-0.57180715
1.39297521
-1.20249736
0.09415822
-0.73086959
-0.57535911
-0.24101838
1.36334252
-0.12108608
-0.11000472
1.69878674
0.34918284
-2.71464682
0.88298756
-0.37625256
-0.21196249
0.16421525
-0.53617370
0.04223346
-0.48101488
0.82504612
1.45508528
0.17396501
-0.93159509
0.93860513
-0.84922552
0.65437168
0.96780366
1.10675180
1.10768127
1.08538008
1.45853972
0.29861268
-1.67868507
0.15092614
1.57802653
-1.58968842
-1.27051330
-0.98021251
-0.46889254
0.48920956
0.86900312
0.09850575
-0.60704720
-0.58312553
2.01731968
-0.03993643
0.56781405
-1.94562507
0.11635288
-1.51887167
0.19726028
-0.29203364
1.10385740
0.88870871
-0.45740134
0.12248714
0.08743996
1.93512261
-1.32611060
-0.68448532
-0.37875810
-1.23702013
-0.09659924
-2.41816187
0.61173397
-0.75373584
-1.09676170
0.99027961
-2.25374031
0.34602752
0.02700403
0.68476510
0.80418563
-1.32574069
0.38310042
-0.45376724
0.04176224
0.85096025
-0.44237682
-0.20367469
1.48387992
0.44240215
-1.13190520
-0.77547199
0.36423925
1.62381899
1.27481735
0.62025189
1.55760407
1.90576077
1.00314403
0.59690511
2.01618052
-1.20186079
-1.17266643
0.62399775
0.08372874
0.21593113
0.17142347
-2.06864834
-0.02576652
0.94713902
-0.27161479
-0.30035052
2.05313468
-1.01322138
0.77746087
-1.42526031
0.21180533
0.07245079
-1.15509105
-0.41679996
0.32940364
-1.41990995
-0.82051140
0.22457054
-1.14933717
0.33003756
-0.81899345
1.92095470
1.06122792
-1.19237852
0.60747391
-0.12043806
-0.61626214
-1.12270224
1.63260770
-0.21791248
1.43319356
0.15454049
0.00683901
0.29409036
-0.20102197
1.56077778
-0.73651379
-0.13853936
-0.99624473
-0.95889068
0.17377722
-1.77545643
1.29024613
0.63065881
3.16782951
1.19008791
0.68877488
1.82469940
-2.20423317
0.11593398
-0.04725575
-1.40577614
0.33339748
-2.23201919
-0.81543535
1.43005884
-0.68565625
1.10185862
0.07765534
1.24477136
1.93998778
0.88388252
0.45352152
-0.58096075
0.62014079
1.70140600
0.03003842
-1.70014310
-0.64388758
0.17101093
1.47261584
-1.11534154
-0.48731250
-0.59224880
-0.59783405
1.44737792
0.31489381
0.25818411
-0.43659493
-0.54903227
-0.56874073
-0.00402532
0.67482901
-0.08636732
-0.24947862
0.70338005
0.52959436
-0.38695502
-0.34933460
-1.29647529
0.83301669
-0.93230146
-0.73846060
0.39286771
0.55670023
1.63882041
-0.16009831
0.44953391
-0.68851030
-0.10882738
-1.48190701
-0.64302492
-1.02500212
1.30636477
0.83554107
-0.50748008
1.94684792
-0.53733420
0.09141897
-0.03262155
0.58150619
-0.64391708
-1.40420556
0.80084538
1.93199933
-0.16024719
0.36767194
-0.54562730
0.41587573
-0.48955673
-2.02883077
-0.54050994
-0.11315862
0.23990023
0.31315562
-0.24588183
0.39725313
0.42923704
-0.79935795
-0.70862865
1.91463029
0.07909736
1.13188791
-1.54587281
0.65027922
0.11649047
1.94938481
1.44302952
0.47245178
-0.39021575
-1.82464468
-0.49146521
1.35731757
-1.17417276
0.04873401
0.67265201
-0.63469809
0.86309403
0.84431982
-0.78851229
-1.94275928
-2.38691521
-0.34206262
0.23841378
0.51678801
0.12633204
1.00931287
-0.23453087
0.47527826
-0.96349525
0.40361533
-0.57097971
1.80831170
1.44707131
-0.63587832
0.98614317
-0.13179205
-1.89627445
1.31497753
0.58179319
-0.08073210
0.10461962
-1.20252812
-2.47350693
0.25101373
0.06553552
0.24540958
0.46498251
2.13350034
0.64397115
-0.68549871
-0.88958502
0.53106534
0.62972546
-1.16366744
-0.87348264
-1.40737975
-0.60599852
0.17646460
1.31599069
-1.44296920
0.94379532
3.18534660
-0.53266954
-0.46038184
0.29846585
-0.25482231
-1.68597305
1.21995807
-0.69976455
1.58339155
-0.49395597
1.69233751
-0.69653702
-0.66115123
1.03991342
1.50394690
-0.04744969
-0.47036359
0.15982507
-0.56655163
0.03817506
0.22535716
-0.54953074
-0.41858289
-2.11169267
-0.10958714
-0.68345189
0.46813110
-1.41038156
0.10840859
1.47233927
-0.21531641
-0.01252111
0.74124587
0.39354196
-0.27989247
0.39427423
-0.70237774
-1.47826028
-0.10062212
-1.29535615
-0.71506286
0.28540868
-0.75768393
-1.61773896
-1.65525460
0.88551235
-0.47213745
1.39207470
-1.28538775
0.81974244
-0.02657503
0.97984999
-0.89141202
0.66279054
-0.88448983
-1.16104996
-0.77798432
0.84383428
-0.12648073
0.74412858
-1.58940566
1.15526688
-0.42590263
1.89428151
0.99108362
-0.84890133
0.47588778
1.20684493
-1.12974095
-0.58045757
0.80087626
-1.58990657
-0.75179672
-2.27084351
-0.67407906
-0.08606165
-0.34014285
-0.86801445
-1.29365504
0.33606011
-0.11543449
-0.66261435
1.35755599
-1.52048755
-1.41474175
-0.81517947
-0.37792376
0.76456910
-0.74337572
-0.68038118
0.60495842
1.54353595
1.46515846
-1.34187436
0.36410290
0.25795099
-0.57424748
0.82038039
0.20975943
-0.43014073
1.40001380
-0.38656166
-0.32316291
0.51641273
-0.09537289
-1.64823747
-0.84990889
0.52820569
1.93341589
-0.86873889
0.45254582
-1.35068119
0.74880987
1.65535057
0.83520257
0.14568457
0.52578789
-0.06598137
0.88607067
0.39731786
-0.87356758
-0.69556898
0.38769847
0.23224379
-0.19429988
-1.28852463
0.53697360
-0.35605222
0.45774350
-0.69200164
0.04329967
-0.66375428
0.31950301
0.34122160
0.94841015
-0.54339451
-0.12698495
-0.86441547
-0.23174727
-0.98467046
-1.11968887
-0.18948382
-2.46093583
1.07041466
1.08977699
-0.04128097
0.36009181
-0.16025758
0.71797824
1.28615248
-1.58788466
1.90135419
0.80478549
1.57421005
-0.54443592
-1.49957883
0.89516926
1.68657279
-0.06849444
-0.26547739
-0.22542594
-0.44717720
-0.40143150
-1.10851490
-1.00746012
-0.08343124
0.65262115
2.22261691
0.88012886
0.19423483
-0.60637712
-1.18132269
-0.03446951
0.71894121
0.75129896
1.93341863
0.26293787
-1.31180799
-0.82255441
1.41655326
0.73980498
0.26225254
-0.63186795
-1.53171587
0.88752580
1.83985019
0.84485322
1.44623590
0.28298050
0.97863740
0.89837044
0.81284481
0.47208628
0.33683026
-0.13097237
-1.05456364
-0.41142717
0.14357899
-1.10739541
-1.77678931
0.24393077
0.53544885
0.69414854
0.85156697
0.78415340
0.07215289
-0.06795841
1.13298905
0.21341652
-1.02063227
-0.50560653
2.08125591
-1.46634042
-1.40715468
1.15352702
0.81899017
0.21036093
1.28866041
0.63038772
1.18731332
-0.76014817
-0.43638712
0.83295476
-0.02905396
0.62566996
-0.91222084
-1.40028107
-1.57556045
0.69179606
-1.57056415
0.51672536
-0.58310020
1.67789912
-0.82553816
0.33112296
-0.10448185
0.86774105
1.26668262
-0.13176644
-0.12289862
-0.85350877
-0.51839674
-0.06292864
0.06990273
0.53980732
2.48736906
0.47423556
0.23111194
0.47006369
-0.68063003
-0.08089791
0.28003967
-0.07291155
-0.46012959
0.84870046
0.24101016
0.99609321
-0.15224515
-0.44634289
-0.08053532
0.84333730
-0.80338180
0.91129458
1.11725032
-0.94899803
1.42973280
0.09027551
1.79410839
-0.46970755
-0.32235724
0.70563406
-1.05608785
-0.48695013
-1.45778024
-1.66973019
-0.51381445
-1.49201334
-0.69286913
0.76101452
-0.06251264
0.29587293
1.26207805
0.65001541
-1.29607749
1.51009405
-1.39689553
1.04037261
0.78439647
0.64042544
1.02154875
-0.86449772
1.42954671
-0.69798374
0.61427617
0.35534626
1.11336613
-0.98535526
-0.89900708
-1.06925929
-1.08148277
0.10717519
-0.57903063
0.02519976
-1.58146405
0.02671807
-0.43342677
-0.88996130
-0.57892203
-0.51657468
-0.24168894
0.21654473
-0.67293024
0.44223663
-0.60217190
-2.00433445
-0.58439195
-0.80590123
2.48041701
0.39794406
-0.96434438
-0.24864762
0.63913876
-0.98264772
0.65672898
-0.68632001
-0.14964777
-1.03481734
-0.57187068
0.66493386
-0.21811225
1.19440103
1.29876673
0.58103138
0.49486911
0.44447088
1.21738183
1.12414634
1.65386784
-0.71807671
-1.46098113
0.20371646
0.61238319
0.80153286
0.11304342
0.78546196
0.14704095
-0.43475711
0.31334695
0.92639661
-1.43530583
-0.47759479
1.09349334
0.47368658
-0.96668297
-0.12438086
-0.01514816
-0.02321599
-0.67842358
0.77997774
0.30320978
-0.38423136
0.26268119
-1.37702966
-1.02849007
-0.65556872
0.35518610
0.11846750
0.74749231
0.82033736
0.59318262
-0.38386053
0.37783805
1.62772369
0.46014667
-0.76658911
0.52912557
-2.23989844
-0.16427824
0.19042148
-0.47458977
0.59402329
2.13586330
-0.17984490
-0.80059332
0.87718916
-1.16217649
-0.88435549
-1.96613312
-1.16837800
0.46695611
-0.00152320
-1.28433836
-0.90888870
-0.94739646
0.07745884
-0.37771976
0.53019702
0.25331008
0.77711272
0.90547609
-0.39154360
-1.43332350
1.41372490
0.75110322
-0.78830999
1.50425923
-0.83854842
0.47450423
0.49526602
0.86126828
-0.56265771
1.92900515
1.72980404
-0.63525367
-0.43364710
0.00995964
-0.47732243
0.41453856
1.24489534
-1.99285734
-0.38180539
-0.67584062
1.53943074
-2.48697639
-0.68979031
1.03742278
-2.24864006
0.37905604
0.62378496
0.34773681
-1.30103946
-0.26680005
1.15855920
-0.35614815
-0.35964558
0.09199164
-0.01787562
1.22279966
0.61004055
-1.06404710
-0.23405899
0.21891506
0.27468064
0.84099066
-0.12724562
1.02830207
0.60050279
-0.79465604
-0.08944560
0.83347672
0.25195593
-0.20743065
-0.27604574
1.52008975
0.18994835
-0.13697653
0.58667165
-2.09157038
-0.04194169
1.34867644
1.72248912
-1.09812498
0.36711511
-1.04490614
0.23309208
0.64197195
1.19304991
-0.40280092
-0.87317622
0.06493176
0.59346914
0.26567674
-0.30697507
-2.83913660
-0.93814826
-1.06612194
2.03325677
-0.62338251
-2.04832602
-1.44063199
0.19629085
0.01289466
-1.23195863
2.00428677
1.58967650
-0.36392066
-0.57976103
0.34978151
-0.70002997
-0.06107833
2.16778922
0.21420343
0.09702723
1.10577118
0.68921292
-0.10604247
-1.63607562
0.21185443
1.17315400
0.23988390
-1.37160039
0.24848060
-0.49422863
0.78082895
2.38739014
-0.36260828
-1.55961311
-0.24405991
0.84539914
-0.67201304
1.86384881
0.44695395
0.44478226
-0.36539716
-1.56448150
-1.23574841
1.08776009
-0.48466268
0.72297657
0.55401981
-0.15364324
1.42922997
0.24943879
-0.62826931
-1.70121968
-0.61510426
-2.93416357
1.59871888
-0.79663396
0.22413553
0.59628445
-0.32509661
-0.33320254
-0.08461577
0.44505236
0.90062708
-0.54849803
-0.74189281
0.16224287
-0.11995378
0.98063064
-0.49058574
-0.53182912
0.15766822
-0.77285939
-0.86836290
-0.25693160
-1.30354798
-0.49956235
0.19717619
-1.33165586
0.62077016
-3.15118384
-0.11464901
-0.50029927
-0.25873649
1.03272069
1.07786608
-0.92353326
0.31164145
-0.49704489
-0.12865071
-0.92241579
-0.05779396
0.28551620
-1.52316546
0.57664704
0.75968057
-0.59092849
-0.81920493
0.91564590
0.90391082
0.64967728
0.64308906
-0.46212357
-0.46130380
0.35726476
0.58120650
-0.60431093
0.86478573
0.30519265
-1.07772231
-0.24228938
0.14438435
-0.12343961
0.30875757
-0.37814599
0.24042435
0.61519045
-0.01399385
-2.22763777
-0.14747049
-0.25771841
-0.13114254
-0.44174632
-0.32213634
0.75401044
0.62117833
-0.54221261
1.99592423
-1.41774142
0.49362940
0.29575160
0.65506250
1.08874917
-1.35449874
-1.53043568
-0.95863128
-0.79957175
0.61176234
-0.67302805
1.14464319
-0.24937801
1.70044982
0.42195186
-0.91934603
-0.09755511
1.93418348
-1.08432543
-0.53236657
-0.01994763
0.82899612
0.76213086
-0.97444093
-0.02174731
0.18226121
0.03547107
0.12645134
-0.92018926
-0.21734363
1.44932103
0.27278337
1.05284870
-1.18259072
0.93507248
-0.27258876
0.82073987
1.46365809
-1.45669997
-0.25738949
-0.89900553
-0.04397998
-0.29503062
-1.05894172
0.08173221
0.42579812
0.97798973
2.24702787
-0.77715367
-0.71806884
-0.15352659
-1.30946183
-0.22399011
-0.79602438
0.54256666
-0.75261468
0.43463394
-0.77220041
-1.09505355
0.77063668
-0.77126545
0.55098987
0.66851723
-0.49330205
-2.62656736
1.46409428
-0.14077319
0.17231926
1.30493033
1.82596064
-1.54877329
1.37040234
-0.07621928
2.17787743
1.65705764
-0.66199297
-0.89520252
-0.39975581
-0.10691798
-0.26805574
0.57443637
0.65904027
-0.08682612
-0.09893288
-1.27581179
0.80031180
0.60392290
0.58993918
0.69417286
-0.04233793
-0.49429291
2.24386191
-0.54650658
-0.02657799
0.41447628
0.39485887
0.70256484
-1.22863829
1.45949519
-0.33739811
1.19377041
1.03083754
0.35944813
1.32801485
-0.76451302
-0.36474371
1.52855110
-0.67840761
0.06402031
1.13048482
-0.43544790
0.13765222
1.30622244
0.40139270
-0.36410972
1.19941068
-1.69869483
0.23375732
-0.33215234
1.56851995
-0.44612536
0.82440794
1.46591818
1.27263939
-0.87171966
1.08557940
0.94419038
2.50659418
-0.25280416
0.53527409
-2.89355326
0.27909461
1.12852120
-0.04333991
-0.19114666
-0.47181490
0.45223182
0.17176883
0.65395761
0.02543654
2.26152873
-0.25683290
0.65784210
-1.08233309
1.73057258
0.72252017
1.22091341
-0.18785700
-1.01719105
-1.25891697
1.19718003
-0.14265408
0.71100014
-0.61440253
0.93905818
1.40442646
-1.65532959
1.50352240
2.35237622
-1.28879344
-1.28815293
-2.17543960
1.67633212
-1.91024673
-0.03361791
2.10880113
-0.42838290
-2.05414462
0.54976219
-0.76874542
-1.31451058
0.60157335
0.68750215
0.94268143
-0.28414690
0.98606676
0.57922119
-0.63445199
-1.77005863
-0.67393661
0.28268212
0.60815513
-1.00293899
1.19469249
0.00646138
0.93369466
-1.66138721
0.95971179
0.18159463
0.37157482
-0.45113167
-0.50957453
3.48458982
1.85390222
0.67151672
-0.54146123
-0.20382077
-0.24008021
-1.28597271
-1.45380533
-1.60910749
1.26298940
0.19298770
0.30560184
0.38474524
-0.70957452
-0.29654509
-1.27901649
0.79084522
1.87902451
1.67260659
-2.28031468
2.26520705
-0.73681217
0.24030991
0.30008659
0.60305834
0.98854977
0.16050628
-0.79001898
0.86208159
0.19846892
-0.29574591
-0.51055342
1.47692287
0.92721474
0.40725163
1.01678574
2.36550784
-0.38831517
0.35390335
-1.59879112
1.66308963
0.07087719
2.81672835
-0.94766247
1.05394137
1.30709052
0.45710012
0.71486759
-0.14168474
-0.68293011
0.29154307
1.80020130
-0.15174863
0.13771151
0.44552606
-0.23946051
0.50920069
-0.15763031
-0.25388780
-0.30658638
-0.26471788
-0.56300437
0.16065733
0.26906767
-2.17786741
1.94492590
-0.68512177
-0.30518526
-0.03278068
1.06555831
-0.02536901
-0.51134127
-0.56576729
-0.27171022
-0.37384352
0.00113926
-0.71157426
0.15550327
-1.15544093
0.38033253
0.35246858
1.42995417
-0.08399692
-0.14392070
0.21981055
-0.04776755
1.04399014
-0.49531373
0.91643757
-1.61692286
-1.46998227
-1.03596056
-0.69985420
0.07560952
-0.44786879
0.72471648
-0.90094095
-1.53682160
-0.57747120
0.94865388
-0.94223154
-0.49247566
-0.09410790
-2.29717255
0.55313098
0.30387104
-0.46977741
0.69460517
0.47597268
-0.18031590
1.72513378
0.75489491
2.33999109
1.65112877
-1.07501113
0.89161897
-0.11195628
-0.63877755
-0.79478329
0.55730277
0.06816657
0.12376169
-0.43663642
-1.33914948
0.48146617
-0.94443977
-0.79244119
-1.13455224
0.57080597
-0.55313987
-1.14634335
1.55514216
-0.91103208
-1.38569057
-0.46346605
0.19802934
-0.89187616
0.47204927
0.22634128
-0.13035376
-0.01475209
-0.86682212
1.11850619
-0.70159495
0.69007707
0.84992886
0.51498669
0.31885618
-0.36321801
0.23151882
1.03427649
-2.51964569
0.08855586
-0.26869807
-0.03823294
-2.37838197
2.21851659
-1.07624280
-1.33255124
-1.06117368
0.03707609
1.06592715
1.01901150
-1.44101846
0.22074223
1.28304827
1.45328581
-0.53016692
0.78175431
-1.27645516
-1.12473726
-0.34978923
0.27783468
0.61021924
1.10216761
0.01435231
0.13444182
-2.42799211
1.05564868
0.14664423
-0.09730293
0.31630692
-0.23192453
-0.09470546
0.52986288
1.18289030
-1.00940764
0.73010671
-0.14262286
-0.78621626
-0.48558772
-0.88583702
2.61592484
1.44669533
0.86483645
1.08575118
0.22540881
-0.07427507
-2.06394410
-2.09645677
0.16192265
0.11945197
0.02314580
-0.31819865
1.12345552
0.47978196
1.60632634
-0.34971365
1.14099824
1.21718645
1.43790185
0.19286056
1.26891446
-0.39718378
-0.56661963
-1.95418108
0.83497947
-2.37718415
0.20385954
-0.76246661
-1.81216884
-1.24230480
-1.30604124
-1.86164677
1.41724026
-0.18518896
-1.48772788
0.95460916
0.69036269
-1.10140538
0.70348668
0.63858539
-1.36233330
1.57340872
0.50322032
0.31815669
0.02389956
-1.61813736
0.23712251
1.59399533
-0.14650671
-0.33930802
0.70164400
-0.63674843
-0.03743071
-0.92045248
-0.04710744
-0.06130359
1.56155550
1.66343141
0.28968886
1.35967755
-1.35515249
-0.24488083
0.52134383
-0.04444498
-0.17251816
-0.52083755
-0.66308177
-0.51840079
0.21319582
-1.05676448
-1.77664840
0.59650928
0.42637435
0.16409035
-1.48774278
1.82091582
-0.89390928
0.26222861
-0.75960308
0.50240231
0.30579701
0.75806838
1.07136345
-1.23235941
0.99482906
0.07284702
0.59524518
1.40530598
-0.19659780
0.97670358
-1.03098726
-1.60211551
-0.90440679
-1.12254143
0.22924776
0.12659438
-1.64509058
1.56965840
0.61783427
1.63678384
-0.81106782
-0.64955223
-0.48336631
1.18948603
1.80702150
-0.98198450
-0.55707484
-0.96193188
-1.03143191
-0.40495533
1.03452623
-0.71699011
-0.19170608
-2.15046382
-0.74627173
0.90553755
-0.72764361
-0.01617894
0.33211601
0.65825909
0.80474091
0.80631179
-0.74607360
0.09772627
-0.25199848
-0.19553614
-0.49299863
-0.40536138
1.25437224
-1.47038138
0.21358423
0.32788098
0.45664608
1.17286205
-0.01212956
1.69653857
-0.05345747
0.56368667
0.36749005
-2.02217674
2.07106066
-0.02110678
0.76159173
1.29864860
0.20024556
1.54341519
0.57579160
-0.57218015
2.30343914
-0.31201679
-0.91727740
0.82899958
-0.52202773
-0.66477561
-0.07014973
-0.45471814
-0.48198032
0.06670738
-0.44498277
0.21757771
-0.47250333
0.85659891
1.66787565
-0.09643570
-1.66825509
-0.56218612
-0.91544271
1.09514165
0.21842927
0.65657967
-1.64015281
-1.08131230
0.52636242
-1.17918813
0.31632999
-0.44049519
-0.37637126
0.22472578
-0.45161498
-0.90018910
-0.09353426
-1.31916273
0.18750952
-1.28924799
0.25388098
1.14915264
0.49166697
-0.74378908
-0.12900123
0.21089086
0.19077465
-1.56352043
1.09359145
0.17524545
0.25792709
-0.42362717
-0.84645975
-1.75441909
-1.55159461
0.47727677
2.08883309
-0.15508719
0.28997219
-0.38574997
-0.98298836
0.96831572
0.58006454
-1.36466622
-0.59083349
1.89639461
-1.37380660
0.52245390
2.04350948
0.84639341
1.11542869
-1.23253548
-1.01041341
-0.15009198
1.13396192
-0.98841792
0.07469625
0.10805766
-1.10366333
0.14463340
1.55261314
-0.20851241
-0.25291896
-1.80302238
-0.63310361
-0.32317251
-0.29130384
-1.07634878
1.40217793
0.26211834
0.75413817
-0.73227829
0.00397441
-1.16595531
-0.98745656
-0.24022759
0.17763449
0.08003505
0.35458976
0.12917608
1.62692881
-0.21434939
-1.73061848
0.38233933
0.43705043
1.73936915
-1.77071774
0.35921729
2.02414584
0.85719347
0.63664323
0.88479894
-0.19157223
0.23159254
-0.06164724
1.62900555
-0.24005848
-0.27612811
1.14650762
1.12009692
1.01768303
-1.83177972
0.42720488
0.18582503
0.49956429
0.14839804
-1.30351913
-0.85083884
0.66499376
1.13489854
-0.61001426
-0.30957633
1.18810308
-1.18029046
-1.57030714
0.55997872
-0.62252331
-1.10283172
0.12747452
0.82599890
-0.13092129
-1.44097662
0.61577606
-0.64507318
0.06394210
0.96485341
-0.84232938
-0.93842489
2.95093441
-0.12082376
-0.73838842
1.34832466
0.76083326
-0.36904091
0.05528656
0.26976824
0.41502875
0.17115207
2.05788112
0.96423131
1.00355577
0.40891013
-2.26357245
1.69959068
-0.26129791
1.24881101
0.88273674
-1.94644797
0.30959371
-0.28492662
-0.64999819
0.84415919
0.65621114
-0.83891892
2.28616905
-0.25065726
-1.89856625
0.08233467
1.09927821
0.75081998
1.30808270
-0.59799957
-0.11051875
0.08353030
0.97990012
-0.19875811
0.16300102
1.05637085
0.69380128
-1.14597714
-0.07603486
-1.19354486
-0.11391197
-0.37724635
-0.25747821
0.43252105
1.09484696
0.08739448
-0.30500945
0.52489346
1.42226553
1.24902189
-0.40728182
-0.03737492
-1.14605331
2.55185580
-0.82624757
-1.16121924
0.63127345
-0.46104130
-1.44975770
0.86876225
-0.43936002
0.04805743
-1.10983634
0.90158933
-0.35365906
-0.29813209
0.86790949
0.55974239
-1.05339110
-0.66152513
-1.15283871
0.19580097
-1.03342903
0.62405348
0.38110802
0.37397683
-0.45392871
-1.09304047
-1.31883764
-2.15928221
0.21779433
0.60415179
0.62799257
-0.53377074
-2.07718945
-0.33934814
-0.09205465
-1.00101888
-1.30536079
0.59405196
-0.58027732
0.14782569
-0.77948380
1.30525279
-0.59273767
0.88607585
-0.05619390
0.28110191
-0.60219157
-1.70109642
1.96445930
1.04318523
0.85012758
1.34440291
0.97393328
1.90929294
-0.53806227
0.78122997
0.82101852
-0.38999003
0.03796794
-0.13985541
-1.24749362
-0.13735148
-1.26915693
-0.55568743
-1.00438440
0.40257555
1.03508890
-0.54087049
0.22713377
0.28499192
0.11526156
0.28782159
0.20000826
-0.78449064
0.51168704
0.39945585
1.02069271
-1.50942421
0.41851214
-1.98565471
-1.20889151
1.50577557
0.59093833
0.90033573
1.46892309
-1.80348229
-0.39712545
-0.12336078
-0.99595219
0.91572934
-0.83555299
0.12835732
0.57112479
1.20285392
-0.85220373
-0.23413451
-0.04892081
-0.20099688
-2.01443481
-0.11517992
2.75583410
-0.27283549
-1.42781067
-0.50904405
-0.42734149
-1.56765985
1.22192705
1.24901783
0.38058406
-0.37480035
1.98041224
-2.29979825
-0.76605570
0.37175563
0.21565165
-0.35882601
0.22980426
0.25252867
0.38187584
-0.11001758
-0.34693658
-0.35809368
-0.43080845
-0.52004731
-1.11311865
-0.99473262
-0.54100615
-0.15575667
-2.68986678
-1.18232632
0.11491997
-0.47123370
2.16124701
-1.68036389
1.00807261
-0.19238788
-1.78192532
0.28387597
0.45314631
-1.09153318
-0.60318404
-0.99435419
-1.38315666
-0.29841101
1.21594429
-0.69359845
0.90013319
-1.15940571
-0.49380726
1.57367814
0.16713271
0.73717731
-0.24961725
-0.06705961
0.85839927
-2.05150366
-0.05227444
1.53057218
1.58997190
-0.71953458
-0.97440398
-1.06496286
1.28476667
0.39447549
0.58298945
1.59673619
-1.31031406
0.47491077
0.08189391
0.40476036
2.28250194
0.59103012
-1.19757736
-1.83497071
-1.77268314
-0.48089209
-0.92632073
-0.29065239
0.50681603
-0.76784432
-1.24838209
-0.83648396
1.55527842
0.46862072
1.23860574
-0.98840064
0.84511405
0.84548932
-0.62179220
-0.39786133
-1.71889758
0.30841640
-1.49855113
1.32782733
0.34674802
0.48350540
-0.20200117
-0.14881904
0.34342188
-1.11323571
-0.37050945
0.14592378
-1.08854425
-0.27611515
-0.13245581
1.03401303
0.40959820
0.92608172
-0.43296823
-1.82921147
0.16770232
-0.63401461
-0.97492266
1.12883532
1.44226348
0.81546956
1.23671448
0.41855824
-0.63337743
-0.04828073
1.14346087
0.62768459
1.01897454
0.22814998
-0.19926974
0.10603964
-0.07124218
0.41442952
-0.61066216
-0.48419499
-0.62055230
-1.17164683
0.71741068
0.02034244
0.17328501
1.26274145
-0.91519040
0.24384594
0.00534526
-0.92237484
-1.10872686
-1.30285394
-0.52828079
-0.92915016
0.39171880
-0.71637636
-2.61101866
-1.13592434
-0.23237011
0.36679330
2.09635353
-0.30556685
0.24695756
1.11532557
-0.05704055
1.82523525
-1.10356987
-0.15781626
0.32037619
-0.09462151
1.47445369
-1.21524334
1.38058782
0.88150710
0.36246324
-0.22199054
-1.14607131
-0.87574852
1.10077763
-1.28368580
-0.20250858
0.60032004
-0.75901252
-1.04977214
-0.21551363
-0.53157181
-0.48734057
-0.81133384
0.74400657
-0.32682279
-0.61038864
-0.40180945
-1.15948379
-1.12932849
-1.55067945
0.59316278
0.30258214
-0.62457860
-1.08361876
-0.00258485
1.29820931
0.98382211
1.00958908
-0.99652433
-0.43856010
0.35900936
1.83041644
-1.20379078
1.11510086
-0.25546125
0.91591090
-1.60734761
0.84837866
0.39145350
0.39030540
0.54334641
0.07577588
-0.44379491
0.41827062
-0.71668887
-0.43083304
-1.34972489
0.55601430
1.04000211
0.20291059
-0.60926247
-1.96298885
-1.88406706
0.90946549
1.29949152
0.18434428
-1.78444386
0.65131259
0.25235015
-1.29047298
0.71151799
0.10104787
1.56191695
-1.19364929
1.34700406
0.97959995
0.37132594
1.65841222
0.43529689
-0.60214204
0.99807763
-1.07584894
-0.92742205
1.38051569
-1.12059140
-0.39460942
0.53782392
0.28365299
-0.89425969
-0.22349226
-0.09179401
1.09829795
1.47077250
0.71498251
-0.44771090
0.05841766
1.43154716
0.26044449
1.13056946
-1.52319384
0.33616275
-1.06928849
0.15198649
-0.04677827
-0.45148039
0.47785103
1.25243664
0.56100464
-0.75854981
-1.69153464
-1.27346218
1.76732063
1.29423547
-0.46450350
0.59470963
-1.02032006
0.50385392
-0.08353008
1.43257415
-1.43192911
-1.31051636
1.22719300
-0.78927714
1.55223501
-0.46872714
-1.32900560
-0.29348743
0.91083574
-2.02697802
0.43672052
0.07359631
0.66582006
0.32281572
0.09163938
-1.07912683
-0.47404221
2.11749387
0.69839340
0.09705938
0.33905315
0.50400639
2.23392224
-1.40085208
-0.72292882
0.20789088
-0.80044520
-1.34423113
-0.67349243
0.41370854
0.12463958
-0.47721112
-1.21369278
-1.73349988
-0.89121622
0.27029067
0.76334792
0.04321473
0.10397154
-0.72227657
0.05607825
-1.74306846
-0.35144132
-0.53708959
0.47119653
-0.40770239
-1.47824347
-0.73243338
0.35254690
-0.01574737
-0.02934290
1.22638261
0.27417707
-0.11960816
-1.22557116
-0.06198795
-2.09171772
0.79752678
-2.79085088
-0.40535584
-0.71096247
0.43176913
0.94515455
-0.96674722
-0.24465820
-2.05637550
1.65506637
1.08967805
1.76070297
1.13472748
0.71002930
-0.61554867
0.21293706
-0.21515238
0.77233875
-0.21340786
-0.19594707
-0.37602648
0.97330171
0.36663431
-0.18640141
-0.68093008
0.05598001
-0.97185045
-0.57416290
-0.97979373
-0.44953454
-0.63144320
1.14906991
-1.97441185
0.13111982
0.54085445
-0.95275706
0.83700633
0.91996819
1.26120031
0.04922418
-0.62109917
-2.10582948
-0.58136010
-1.04008365
1.36673558
-0.71548957
0.20306231
0.09494033
0.75181442
0.54960412
-0.70414382
0.53908783
0.53325421
0.84084845
0.88514996
1.08526993
-1.54160774
-0.40529960
-0.14836715
0.46066859
1.19131947
-0.02468585
2.83485794
-0.02487459
-0.48681453
0.31795818
2.11258626
1.18206680
-0.15303302
1.16919899
1.86400235
-1.56242859
-0.91310829
2.53776789
-0.80380732
-1.14529431
0.12431683
2.02062392
-0.02316981
1.00394022
1.01957905
0.18682088
0.81120288
-0.81839758
0.75063252
1.85415411
1.45285690
-0.90752655
0.08574498
0.39442447
-0.98128307
1.61953914
-0.28045189
-0.33228600
2.48941374
0.48582047
0.14589994
0.74004740
-0.54324979
1.02142012
1.47870624
1.32364607
0.45559597
-0.57127148
0.60557830
0.57974666
-0.44102782
1.12429464
0.04861513
-0.56813419
0.88404137
0.96355885
0.85724121
-0.85542023
-0.01517597
1.50996482
0.83435869
-0.30488721
0.34404415
-2.59915066
-0.79237187
0.66255832
-0.30780470
0.22205833
1.46816123
-1.28491306
-0.29723290
0.75999361
0.65404904
0.72735387
2.08248806
0.12968066
0.03409453
0.12916307
1.46137321
1.79329193
0.34605277
0.56857491
-0.24013731
-1.43751824
0.88675970
0.11143914
1.59965241
-1.34421396
0.87522441
-0.32345408
-0.20817772
1.45420551
1.76444757
1.12620819
-1.05424440
-1.29690480
-0.59735197
0.86740834
0.69359988
0.56501347
-0.33035573
0.43297783
0.28663760
-0.16703396
-0.45298693
-0.88101256
0.82990342
-0.18135047
0.54084045
0.87174559
-1.59801984
1.21003973
-0.89246434
0.47456527
0.25421992
0.21600278
2.99542904
-0.62914306
1.65101528
-1.46175063
-0.00631198
-0.57168239
0.36826417
-0.08568426
1.60983169
0.19892259
-0.34192815
0.49411285
0.32473475
-1.08451080
2.32472563
-2.61576986
0.01813812
-0.21707362
0.89988458
-0.19474733
1.14629030
0.61439568
-0.26506931
-0.06165906
-2.70577788
-0.32848054
-2.53970051
0.06638172
-0.18367466
-1.57896984
-1.31679940
0.82053113
-1.00677335
0.03839662
-0.50479227
-0.43333760
-0.76637560
-1.61290944
-0.59231704
0.14363384
0.86757493
-0.31927395
-0.10370936
2.13141537
0.31729835
0.46871117
-1.11740112
-0.45762199
-0.32728529
-0.86198467
0.54994982
0.29363763
0.91197705
0.77947444
-1.04655921
-0.83448553
-0.55742419
-0.21756807
-0.15453571
-0.08064708
1.43752825
-0.36002421
0.91372925
-1.82829678
-1.93937147
0.26623344
-1.10448158
1.67028368
0.01512673
-0.23668310
-1.03571808
-1.29215598
0.31676733
1.36317444
1.22610629
0.43542230
0.52210683
-0.53286326
-0.56603539
-0.83338821
-0.09194344
-0.03985142
-0.47454366
0.68738526
0.69724619
0.96214932
-1.45873785
-1.20425320
-0.21873544
-0.77686268
-2.54227567
1.86734366
0.22355507
-0.15824796
-0.38855761
0.13630940
1.15136206
-0.35950819
0.56648666
-0.24867192
-0.35844699
-1.46366918
0.61093003
-0.94301462
-0.00470260
-0.22625369
-0.95417029
-0.24272965
0.90466928
1.16632581
0.93952280
-0.58282310
0.66113251
1.34161973
-1.04277658
-0.59162462
0.53720510
-1.78879702
0.04832970
0.49309281
-1.02017677
1.36664009
0.54646325
0.47449723
0.17066102
1.21351659
-1.14317536
0.32777146
0.13720655
1.07734799
0.80701190
-0.14616048
0.17954694
-0.28949130
-0.75458986
-0.99298823
1.57040429
-0.68216527
0.55249083
-0.05561282
-1.44227636
-0.81323397
-1.00173533
0.26182663
0.40933615
-1.11323428
-0.32559475
1.60641801
0.02179000
0.47344431
-0.01354874
0.28731993
-0.28391472
0.03414483
0.51740670
0.24250162
0.05487470
-0.26628193
0.51831913
-0.02470164
0.04876747
-0.39351252
1.01356339
-0.96253741
-0.56208688
-0.85151094
-0.74190021
-0.50411057
0.86856937
1.22218812
-1.52841294
1.33163369
-0.16889311
1.14584553
0.88666075
1.45952320
0.30437779
-1.11347461
0.41297778
1.30126679
-0.53712368
-1.18473494
1.06119764
-0.95549870
-0.80296379
1.09714925
-1.73902583
0.32974103
-0.47169152
-2.34271908
0.77103621
0.89051557
0.58584088
-2.02928591
-1.18048096
0.66527581
-1.59135818
-2.22419071
-1.80059779
0.14671226
-0.77910691
0.37876076
0.28787428
-0.68829107
0.48028705
-0.50480264
-2.93817878
-0.04130755
-0.83041090
0.85734248
-0.87682933
-0.32553697
-0.18056838
0.08699815
0.40361217
-1.22522044
-1.77266502
0.01747355
1.31491101
0.54098749
-0.24512957
0.76567876
0.43816090
-1.04871905
1.23823142
-1.48431754
0.50364584
-0.27910566
-1.54131222
1.47287035
-2.17385912
-0.14011987
-0.35058725
-0.38076317
1.24507070
0.17688355
-0.64623690
0.17747205
1.15029669
-0.59217763
-0.95415831
-0.45589420
0.58844489
-1.76815009
0.74879885
1.93036509
-0.06554096
1.88118720
1.20417988
0.74714649
-0.05897530
-1.65604556
-0.31340727
0.08673115
-0.11209863
-0.59875923
0.49658597
-0.07375938
0.09564801
0.16353688
-0.19135070
1.18515182
1.14661431
0.20972760
-1.14593184
1.06815004
-0.29113245
-0.80144519
-1.30284786
-0.26934004
1.79663813
2.37769198
-0.10213265
0.29832217
0.73918653
0.21520719
-0.89041579
0.91373783
0.94544423
-1.21286738
0.36416355
0.69766557
-0.86840630
-1.91823709
1.09666598
1.20870078
-2.07171988
0.57207483
0.54659617
-0.21078233
-1.10421050
0.14271381
2.53317738
0.21264240
-1.25654304
2.02733588
-2.53419566
-0.25563493
0.13735218
1.52145445
-1.47701097
1.75483072
1.12365448
-0.74400979
2.14931536
-0.33897761
0.95238054
0.45289141
-0.53859138
1.80804110
0.14787461
0.01883312
-1.15277374
-1.36305892
-1.33180356
0.14292987
0.51949978
0.54501867
0.82799059
-1.46911430
-0.63255578
0.00531451
-0.77009338
-1.19176829
-1.45358336
-0.91241157
0.55956554
0.23064426
-0.31927326
-1.24455130
-1.68132770
0.25354496
0.50252128
2.22726870
1.00702167
-0.28705704
-0.01944142
1.74218452
0.46871588
0.23527192
-0.41130722
2.10345960
-0.13902865
0.68647444
0.04933487
0.60055274
-0.14501837
0.78567743
-1.29268324
-1.92700207
2.25507164
-1.28972960
-0.27349621
-0.93323427
0.08974386
2.60663271
-0.26367551
-1.55988431
1.67362761
1.63900697
-0.35070434
0.36394206
-0.08554666
1.93440700
1.07779562
-0.50166279
-0.49078763
-1.24590325
-0.53670329
-0.57064003
1.46906996
1.99484944
-0.29138020
-1.83842587
-0.23745422
-0.37172800
0.29592580
1.36411905
-0.38933513
1.33854222
-0.07644306
-1.08698082
-0.10958052
-1.26435757
0.50189149
-0.14007729
0.34116110
-0.11321902
0.04785433
1.07193160
-0.60057563
0.01158564
0.35542074
-0.80784214
1.82860422
0.07874598
0.09691449
0.93072534
-0.68911910
0.11154603
-0.83861208
-1.01437831
-0.20867890
-1.02284610
-1.06675649
0.72023845
-0.35696870
-1.06394517
0.95263624
-0.21198638
-0.27509034
1.96223867
-2.39933062
-1.44128096
-1.39159608
-0.43995792
-1.57096314
0.68664271
-0.79212630
-1.54375565
-0.68913645
-0.25388667
-0.59233403
-0.10621657
-0.67125458
-0.51147580
-0.41798806
-1.54244184
0.36694282
-0.90357566
0.49666354
1.98278642
0.94262028
-1.46944404
0.24783698
0.48064142
-1.03233600
0.91864532
0.02533832
0.52955627
-0.19564351
-0.25460839
0.08833286
1.82922804
-2.04704642
-0.71664518
0.74508524
0.12360984
0.02223610
1.90184128
0.07601146
0.05929747
-0.03190177
0.29407793
-0.09808500
-0.99588788
-1.22038782
0.23080118
-0.04783344
-1.85537779
0.22172198
-1.60038114
1.54396808
0.31534028
-2.92332435
-0.97352141
-1.14256585
1.51261735
-1.51329899
-0.51130354
0.06902103
-0.73162127
-1.02452672
-0.99404490
0.83375835
-0.28196055
-0.10690111
1.10842836
0.64950210
0.19460085
-1.25204849
0.49596849
-0.16386046
0.70615125
1.27022338
-0.60860723
1.06051171
-1.43111658
-2.30379581
1.07159710
-1.55677259
-1.10208976
-0.47108778
0.30323410
-1.03361726
-0.32414868
-0.55888933
-0.26789996
0.15837766
-0.08874377
0.43566650
1.12997127
-0.57094610
1.01447535
1.66579568
-1.53440571
-1.85936522
-0.26933718
-0.04674131
-0.33919474
1.48275340
-0.19426242
-0.94875711
-0.66149169
-0.16145684
0.98292863
-0.98188406
-0.33754620
0.98432863
0.83130687
1.10227144
1.96809554
1.00922441
-0.09926090
-1.33938634
0.94549024
0.45443070
-0.55481797
0.78400618
0.42194992
1.60744178
1.37369716
-0.82127911
1.21617067
-1.05254483
0.23042098
-0.44435117
-0.68953502
0.02217502
0.64305919
0.79153019
1.10629642
-0.29398111
-1.32223642
0.14137322
0.23981361
0.45905128
-0.72517204
0.11647166
0.13489500
-1.77482319
0.28159317
-1.42555499
0.86015218
0.17973985
-0.46379417
0.30934733
0.50641888
-0.27637732
-0.01193982
1.39629960
-3.10569215
-0.37990749
0.81977451
0.29192513
2.94366002
-0.27295771
-0.18933447
1.15530705
0.10027623
0.03712550
-0.52264959
-0.08353687
0.99476331
-0.78499448
0.20777056
0.77962106
-0.78234148
-0.61078334
1.03625703
1.49890804
-0.74537402
-1.40855610
-0.09182224
1.15519965
-0.04151496
-1.53190625
-0.55794114
-0.78168380
-1.07671690
1.11512554
-0.19527520
-0.61716908
1.69278967
1.37094975
0.25492534
2.07912993
-0.77056110
-0.86725843
-1.29201806
0.39777043
0.35107955
0.97037685
-1.77725577
0.89989209
-0.39631107
-0.12187897
0.30710873
-0.52908355
0.41993985
0.21467306
0.31286740
-0.32909268
-0.76561177
0.32908195
-0.74198425
-2.09031963
0.95880193
-1.96550155
-0.79601228
0.93621171
-1.06415319
-0.05306798
0.90064478
-1.18378770
-0.39267495
-0.41902253
0.26484838
-1.90781760
0.75923246
1.53340316
-0.44811705
-0.20076999
0.03440118
0.76989943
0.66996121
0.33689874
-0.09311128
-0.12121765
-0.27872092
0.58511472
-0.64169973
1.09889710
-0.67731625
0.56582606
-1.06984007
-0.65371823
0.12310902
0.56636781
-0.13172242
1.34998584
-0.09683810
-1.14540136
1.62340474
-0.98021793
0.04524317
-0.35474798
-1.11219287
-0.16581900
-0.27426881
0.25646144
-0.13778171
-2.53164482
-0.13975178
0.82866704
-1.41460109
0.14529306
-0.91431296
-0.46438214
1.91627085
-1.29309249
0.47157973
0.28083760
0.96125090
0.20660320
1.68261206
-0.00591268
-0.74261838
-0.75015485
0.48041990
-1.52587605
-0.41991311
-0.34462073
-0.89943600
0.23660411
0.07402552
-1.98505294
1.15854084
-0.69550955
0.45537534
0.41151515
0.17951331
-0.43887669
1.80259800
-1.64906824
1.58192158
-1.84797895
2.17399359
-2.01695728
-0.21720359
1.24512959
-0.10076364
0.99284524
0.27547315
1.13013387
0.60702831
0.13043077
-1.70466793
0.80896699
-0.79674828
0.71035236
0.85426772
0.65324128
-0.67984313
0.55375987
0.61060262
0.11423089
-0.29202807
-0.83878225
1.23369122
-0.35722092
-0.61754149
0.48947769
-0.24705133
0.43191963
1.61138403
0.51824343
1.82460701
-0.68634033
-0.89192039
-0.95144385
-0.06658718
-1.34692109
-1.77005494
0.44140691
0.43893921
1.12894368
-0.22599243
0.29068923
-0.09313667
0.28121814
-0.24015689
-2.11549687
0.32992637
-2.71804738
0.14878240
1.16641629
0.22237769
0.32768893
-0.91812313
-0.11739811
-0.11127999
-0.45858806
0.89487684
-0.12474191
-0.13644387
1.62916100
-0.51753318
1.64382207
-0.30439550
1.51115119
1.54840851
-0.75599480
0.18409377
0.69189256
0.06868947
-0.78530163
-0.11482164
-0.00880761
1.12034261
0.70348495
-0.23741703
0.34499913
-0.26190978
0.79064029
0.43643290
-1.69319034
-2.30009437
-1.47069097
-0.83002961
1.85967326
-0.49912849
0.47856912
0.62803584
0.02127440
-0.40354809
-0.24476711
0.05632796
-1.20986009
-0.99610949
0.21818946
-1.85689914
0.37857780
-1.29720235
0.73135418
2.05071330
0.98875839
1.45243621
1.74055004
0.37930819
-0.49463335
0.05931354
0.59439337
0.03152983
1.52867508
-1.22316539
-0.14652570
0.95874947
0.97030514
-0.38942945
-0.14506182
-1.60558867
0.24983601
0.16197494
0.60229343
0.39598477
-1.26112473
0.65991789
1.66884708
0.20136140
-0.97709697
-0.73817867
0.76131600
-1.49001193
0.47674504
0.30809736
0.30395505
-0.90109342
-2.12582946
0.36373755
1.11611354
-0.54630315
0.86988902
0.07238460
0.03729080
0.23761874
0.63268232
2.85471654
-0.86815715
0.06146362
-0.08540685
1.42177677
0.20110735
2.70283484
0.00610816
0.50837451
-1.78940332
0.01282334
0.03393685
-0.64998490
1.68616498
-0.87577289
-0.81274629
1.05426180
1.18921101
1.84670067
0.84862047
-1.63627648
1.54036856
-0.55084097
-1.83970749
0.44705757
2.71737671
-0.31364322
-2.55300331
-2.61403108
-0.13943891
-1.34730089
-1.49504554
-0.26926860
-0.57800645
1.81395495
0.09279864
-0.90921742
1.11035407
-1.65058398
0.65604937
1.40487397
0.10512681
0.33925906
-1.01763439
-0.05252326
0.11082397
0.14631745
2.82640767
0.06355607
-0.97972554
1.12329495
0.35746282
-0.02027770
-0.27714568
-0.49683744
0.07194491
-3.84935451
-0.10178292
0.20361160
0.92805111
-1.00430536
-0.68721789
0.31627548
-0.47632349
0.12670314
0.28138077
1.23225141
1.58607626
-1.04920900
0.13613629
-0.65461546
-1.27930069
0.13463661
-0.06818517
0.03950154
-0.90486693
1.24356115
-1.54757237
-0.00969681
0.84931970
-0.00949649
-1.31949747
1.14711475
1.78488839
2.55162024
-1.12394500
-0.94354099
-0.20237638
1.35207534
0.17526211
0.08339328
-0.23182762
-0.05499158
-0.24465591
-0.68133909
0.24972440
0.35828364
0.26878357
0.30464652
-1.36487603
-0.26550704
-0.28786150
1.35166860
-0.57509595
0.92466491
0.83680743
0.34808365
-0.74593520
-0.33430341
-0.60602999
-0.06550201
0.06248314
1.56311154
1.31641388
-2.02740359
-1.20016849
0.41690335
-0.05925322
0.59584081
0.29500547
-0.72008735
-0.50439310
0.33038995
-0.11426622
-0.40812391
-0.44073379
0.77603304
-1.17563260
1.59159791
0.39153492
1.20966196
1.34486520
-0.13528463
-0.62894458
0.53155416
-0.38026652
-0.23650254
0.25167617
-1.68342304
1.32471192
0.28159088
-0.67026448
-0.93264914
-1.14191592
-0.23293746
0.86702049
-0.30154604
1.18625379
0.51881659
-1.26232409
0.70502448
-0.84889299
-1.34321880
1.41232586
0.42811260
0.02501134
0.25204787
1.41226184
-0.06086306
-0.15884711
-1.97007525
-0.61920726
-0.39323503
-0.27338231
1.17059124
-1.01113963
0.74493736
0.49391308
-1.41160965
-0.71299636
-0.30730775
1.23517025
0.42557481
0.94888985
0.61064118
1.75739622
-0.26403812
1.09487092
-0.69915473
1.14317942
0.14545700
-0.25668868
0.95148861
-0.25494301
-1.67918074
-0.54086643
1.22532570
-0.51971757
0.82601416
-0.91279751
-0.23411727
0.38004121
1.94789159
-1.41582382
0.95450848
-0.15044130
0.41014209
-0.17019756
-0.66098803
-1.65144014
2.06390214
-0.80756146
-0.77158076
0.58159900
-1.09529567
1.41924942
0.78580368
-0.68740243
1.84991229
-1.42059207
-0.41419819
-0.36610454
2.79230762
0.39833593
-0.03020439
0.28633574
-0.31696293
-1.23735917
0.49767077
-1.15874410
-1.42383802
-1.68415546
0.46450758
-1.53856552
0.71039236
0.39182618
0.73504561
-0.73047525
0.28061503
-1.07244742
-1.21562994
-0.21447013
0.56876355
1.08239615
-1.08617413
-0.23055080
1.90791082
1.66627085
0.03643579
-0.18907295
-0.17550629
0.57958072
-0.21778943
-1.04634511
-0.60124540
-0.70961291
1.37592697
-0.29326391
0.28998095
-0.55674613
1.67386639
-0.40007982
1.03193939
-0.04612637
1.33661854
-0.09418905
0.31108427
-0.16399893
-1.28264296
0.43497181
0.43849963
0.26319528
1.22154963
0.40493533
1.21690679
0.23883413
-1.32741940
1.31673837
-2.91809225
0.03920355
-0.53607351
-3.14621162
1.42748392
-0.35559210
0.18337147
0.75527585
0.11300288
-0.20012718
-1.44082665
0.37222549
0.91819876
-1.28964388
0.10861897
0.78980619
2.69607306
-0.89546824
-2.01660514
-0.30133840
0.14756888
1.80839932
-0.01808955
1.10324728
0.88847482
1.10424638
0.16798131
-1.31438601
0.49751619
-1.46726000
1.04233420
1.40136409
0.44794866
-1.22276545
0.78343505
-0.92837548
-0.67787898
2.16599607
-0.15614697
-1.37929821
-1.05992436
-0.68438947
-1.04825962
2.49159026
0.64697081
1.36099768
-1.10256159
0.08969395
0.65702301
1.06202292
-1.61423945
0.04296057
0.63758051
0.38418490
0.75817358
-0.65713000
0.38754630
-0.84460551
-2.18411541
-1.84257615
1.15431881
-0.26602319
0.73047960
-0.45506364
-0.55494851
-2.19957042
0.11867654
0.43303949
1.13006544
-0.40431750
-1.10183394
0.10985379
-1.09353745
0.37491888
-0.02379255
-0.02629605
-0.98316681
-0.85944289
-1.09653723
-0.65777266
0.82684058
1.20155919
1.08738256
0.36420050
-2.27681589
0.41635090
0.19003460
1.78771770
0.17122276
0.11403459
-1.95962000
1.31653643
0.55121899
0.53571969
-0.74041390
0.69955283
0.09448610
0.39106223
-1.31008971
-0.84837753
0.18142885
0.65987504
-0.39630184
-1.07226312
-0.70901793
0.25038874
-0.28231409
-0.07950919
0.84449685
-1.22541213
1.10550439
0.69482905
0.57922333
0.19815472
0.16427787
0.82437795
0.39752641
-1.55543363
0.24390022
-0.74174857
0.07508008
0.35580891
0.89032638
-0.71150196
0.30682164
1.00229311
-0.53563207
-1.25914431
1.62510204
-0.63349545
0.61264288
-0.16476572
1.06320941
0.48706961
-0.09558520
0.98192990
-0.66492867
0.76408988
-1.81072640
-0.16223843
1.99925780
1.65986431
-1.33449519
-2.37616348
-0.78880650
0.52725846
0.41933203
-0.67423159
-0.35306692
-0.38370395
-0.67803508
-1.38229299
-0.85395616
0.95091623
-0.73080969
1.39828086
0.39255139
-0.86412936
1.61011147
0.15434997
0.06437991
-0.20108770
0.21659449
0.03466604
-2.38663483
-0.99263895
2.99355745
-0.32797128
1.61602294
1.64884233
-0.66086143
0.27643427
-0.05665849
-2.56277108
-0.45196053
-1.65663683
1.96423745
-0.83946878
-0.84204894
-0.78720808
-0.20113690
0.14633754
-0.15273872
-2.00971746
-0.30451521
-0.16308112
-0.40622258
-0.46306074
-1.60992777
-0.81047195
-1.33817589
-0.45268047
-0.78920674
-1.77107143
0.69390702
1.13671637
-1.18317580
-0.36141801
-0.18472993
0.02245902
0.53953290
1.69060910
0.79039472
-0.01618700
-0.06825374
0.05856785
0.18132177
-0.90835780
-0.42452478
0.21856232
1.04759026
1.44299805
-1.81410611
-2.15696383
0.34558579
-0.20944254
0.74955237
-0.11236728
-0.17099361
0.90942621
0.31456989
0.19116098
0.75273818
-1.18931782
-0.65721893
-1.24308038
-0.18111350
-0.42672497
-0.26480678
-0.54447842
-1.01438260
-0.03945268
0.21592917
-0.42511499
0.50197929
0.92748427
0.14764865
-0.33022714
-3.25342751
-0.57621032
1.88305151
0.21338081
1.32715452
0.59478021
2.21057677
0.52234656
0.75655693
-1.07586956
-0.63469619
-1.07929301
0.77013457
-0.81259906
0.30800766
-0.88607353
0.51855636
-1.93963373
0.55606586
0.47408745
-1.73922205
0.85749048
1.82273936
0.67360574
1.98586357
1.87826514
0.75962389
1.26224148
-0.52237588
0.64834303
-0.83030367
-0.69098961
-0.59343642
-1.34385204
1.23231232
-1.01451969
-0.24478337
0.15972917
2.04791045
0.47952801
0.72101456
-0.01873318
-1.17320383
-0.05070041
0.18440135
0.38914201
-0.37162998
2.65234351
-0.89467859
1.02536201
0.85954678
0.69899464
1.43599510
1.54079473
0.04691232
0.05585861
0.92185205
0.22131085
0.40764940
0.01843798
-3.02075362
1.14534402
0.95604473
2.38657570
-0.71032619
0.14451961
-0.27025396
-1.30613661
-0.56952590
0.13573436
-2.34913325
1.35131359
-1.09765184
-0.63277757
-0.66291320
-1.40740716
1.27360439
-0.10503135
-0.26785240
0.58192271
0.65595615
-0.48494485
0.24506427
1.07228482
1.09150708
-0.37572622
2.29232693
-0.96412325
1.56802201
0.39964882
-0.51188791
-1.57303381
0.48037785
0.79824233
0.96207178
-0.08237661
0.33625603
-0.03957025
-2.09924984
0.22823405
1.51660872
0.23237441
0.42842552
0.62545657
-1.30521131
0.80128711
0.37443540
-1.23376393
1.29831755
-2.15360498
-0.66772479
-1.13890088
-0.40792105
-2.57013559
-0.39832476
0.43019119
2.31251550
-1.02128232
0.48417473
-0.41465396
-1.24735093
-1.09228361
-1.09982479
-0.42653114
-0.17589442
-0.96941656
0.01790653
-0.08634724
-0.43649620
-1.11410046
0.09587096
0.57788616
-0.09861791
-1.27735221
1.59075487
-0.86321402
0.16558874
-0.58836621
-0.36115569
1.36098146
0.38466948
-0.28297025
2.24443817
-0.17496778
0.62816989
-0.89237982
1.22724187
-0.13215289
-1.19515157
2.40233493
1.50980294
0.48412067
-1.01114762
-0.74350268
-0.99726009
-0.74303496
-1.14280879
1.07873070
0.59503734
1.34622073
0.76677448
0.24699226
0.53473473
0.83425635
-1.00698781
0.09470308
0.99097162
0.80967999
-0.82704967
1.04202604
-0.44007441
2.36070180
-1.74616969
-0.05936615
0.08874369
-1.57988346
0.74595243
1.25691998
0.55638558
-0.43839422
0.69056022
-0.93730807
-1.16324914
0.06862358
1.15192127
0.52197063
1.38963056
1.53238297
0.78101963
-1.23703277
1.88575161
0.75223488
0.34843254
-0.29995689
0.24826694
-0.37099862
0.14999540
0.52338481
-0.41350427
1.09610021
0.18505900
0.66970801
0.97413087
-0.53298247
-0.08466078
-1.30371964
-2.47680616
-0.31069776
1.17037880
-1.19560719
0.04694957
-1.69273794
0.43427354
0.55895269
1.63724053
-0.79879141
0.49955356
1.17026520
1.33234334
-0.54015154
-1.71723151
0.94460315
-1.41503954
0.52765465
-0.46722874
-0.35281825
-0.89322412
-0.79725772
-0.39175311
-1.28566313
0.17191660
0.01101789
-0.32194263
-0.17188546
0.45763350
1.74598610
-0.50832081
-0.08088490
-2.11034942
0.01036648
1.02700007
-0.79767805
-1.15708339
0.06738689
1.74670804
-0.11334725
-0.19335918
0.87388897
-0.49959186
-0.34404874
-0.27149761
-0.94429809
1.65944648
-1.20047319
0.26087427
-0.41460171
-0.07013185
0.75809944
-0.44684979
-0.48776501
0.76108724
-1.46116388
-0.13059480
0.08333861
-0.11734200
-0.44318566
-1.79905844
-1.09717834
-1.60968268
0.02955735
0.41980991
-0.34017971
-0.26099068
0.98614770
0.19441991
0.60926241
-1.06365609
1.45806813
-0.81388438
0.39294791
0.18099074
1.26598239
-0.78405637
1.34718084
-0.26916927
1.14142168
1.92044485
1.20070875
-0.02382640
-1.15567279
-1.38040435
-1.09492517
0.59630972
-0.81953704
1.03173149
-1.97181880
-0.77439678
1.61810541
-0.25501996
-1.35195267
0.00205656
-0.49701920
1.38557673
0.42696166
-1.56453681
0.31103587
-1.37204540
-0.65190339
-0.94636810
0.46078196
-0.70868182
-0.01897481
-0.22706711
-0.72106522
1.03323174
-0.89210564
-0.33154610
0.51163238
0.43689772
-0.25237733
0.07304674
-0.25071955
-0.18798834
0.02751995
-1.28788149
0.34307051
-0.97438836
0.76170903
-1.09115803
-0.64691561
-1.19843638
0.46937901
-1.36508036
-0.96728772
-0.24527602
-0.11971621
0.89848882
0.58319294
0.45751908
0.12713079
-0.91747308
-0.85644335
1.04805279
1.10360169
0.79757178
-1.86143982
-0.66548920
0.50317997
0.47981286
-0.08993617
-1.72479844
0.13101885
-0.29873016
0.26852289
0.70272404
0.67192924
0.58906859
-2.73227882
-0.40876451
-0.48076451
-1.57380021
1.80662322
1.25325370
-0.60408753
1.52506077
1.64748955
-0.73830462
-1.05193985
0.41438901
-1.94852078
-0.92581999
0.10296769
0.72838992
-2.08286428
-1.50967503
-0.55310732
-1.60002422
-0.68458140
-1.90606534
0.99115229
-0.26733476
0.78133082
-1.00655925
0.22454835
1.81838810
0.63262159
1.36902583
-0.42324632
-0.45456779
1.96297717
-1.09108603
1.28858471
1.01822281
1.97189236
1.16288829
-0.81611913
-1.37436688
-0.79882735
-1.58027411
1.16984391
-0.13257532
0.75498331
0.60521734
-0.51795274
0.53237981
-1.19149137
-0.72739547
0.38532469
0.00992641
0.57957941
-0.94178867
0.60590333
0.29105595
1.84397602
0.44477373
-0.12019483
0.51063806
-1.33332002
-0.73397499
-1.40140164
0.72549921
-1.03631496
0.87555879
-0.11174371
0.52875304
-0.33801141
0.11933933
1.52825892
0.00678185
0.76601624
1.69593847
-0.78113204
0.10093690
-0.68415529
-0.77264577
-0.68406028
2.00680637
-1.10487401
0.53036785
-0.06877054
-0.43992832
-0.19669333
0.15683268
0.32279736
0.26217061
0.55017602
1.00516152
-1.45179808
1.15650570
0.22626024
-0.10357440
1.33302999
1.57189083
0.64760482
-0.62652004
-0.38895035
-0.39990917
0.72046357
0.26199692
0.93136787
-0.36721054
0.57766116
0.01112516
0.17495982
-1.76486480
0.54865474
-0.73297596
0.82980484
0.07379039
1.05709791
0.45323235
0.98194396
-0.24299280
0.36141381
-0.75766861
0.34114489
0.25749326
0.76525694
1.62266266
0.54741853
-2.46628404
0.00820753
-0.92967367
-1.24479115
0.15510789
-1.56314671
1.21175194
-0.02428042
0.04845555
1.17091978
-0.91525769
0.55012155
0.13226165
0.00838819
0.08991457
1.08854759
-0.08090560
2.01967716
-0.26506567
1.02779913
0.20046137
0.52446514
-0.05818519
0.82198626
-0.47699460
-0.57254958
1.17012334
0.83264303
-0.94481593
1.36624920
-1.86885643
1.17447484
-2.22452855
0.09440861
-1.82990050
0.61353463
-0.44207394
-0.24442616
1.82537389
1.50061834
0.39940175
-1.63378131
-0.02156608
1.29242802
-0.42211097
1.32652831
0.02105627
0.50236350
-0.32132488
0.88236737
0.35880888
1.15272367
-0.76320487
0.29237157
0.84101760
-0.16867889
-0.37169921
-0.78364760
0.35786125
-0.34078833
1.05667913
-0.54779768
-0.45861021
-0.87209338
-0.26708844
0.08741885
0.35800502
-0.03922097
1.12036073
-0.53266102
-0.66308600
2.04581594
0.18122645
1.45458174
0.05055534
0.19554493
-0.49450183
1.46269798
0.02725078
1.70992494
-0.07079156
0.17500627
-1.77098763
0.42355859
-0.86640668
0.37800184
1.09585440
0.56497514
-0.42389396
1.27583110
2.32035613
-1.17589951
-1.24166918
-0.07504282
1.10522377
1.52554882
-0.61556971
0.05387350
0.92466724
0.91220111
-0.85166746
-1.70750248
0.45670691
-0.22903147
-2.13620591
-0.21005934
-1.80007660
-1.42108095
0.38562244
-1.21484709
-0.82745218
3.03739691
0.60636419
2.20693541
0.86861432
-0.80049777
0.24507979
1.47252548
1.15128839
-0.64215314
0.01404857
-1.08751118
0.58431178
-0.43537384
-0.32971722
0.02802521
0.40554816
1.90389812
0.22327077
0.81935692
-0.92613447
-0.73242956
-0.14977080
0.34447506
0.87572610
2.06653666
-0.93554288
0.60587335
-0.95719033
1.87378192
0.00882469
1.25053179
-2.13181448
-0.69792187
0.79885906
2.26066828
-0.11979298
0.92106545
0.09506295
-1.36353040
-0.58716917
-1.41287816
-1.64855719
-0.12352369
-0.63067633
-0.49098572
1.49398971
1.67827129
1.31868494
1.14593685
0.30517256
0.60496080
0.30811727
-0.38952354
-0.22412738
-0.28495172
1.20946217
0.47315544
-0.24100234
-0.42971641
-0.42741141
-1.20655262
2.03520083
-1.48367763
-0.41992104
0.53055722
1.39691246
-0.03952777
2.21772528
-1.22914577
1.23741341
0.42788896
0.98527449
1.38416898
0.50648057
0.57601452
-1.28350616
0.23230855
1.48094141
0.84576690
-0.56467599
0.72010309
-1.22142649
-1.60658252
1.79784584
-1.77108109
-0.63440198
1.96114194
0.14677797
0.54517758
-1.39515352
-2.07142782
0.44962886
0.76683778
-1.03936446
-0.00825378
-0.90904140
-0.26716745
1.19471860
-0.19543177
-0.46002859
-0.43753886
0.71036011
0.50395370
-0.34901115
1.16842008
0.34564739
1.62277067
-0.40922973
0.55745649
-0.30670077
-1.25487554
0.33393160
-0.23257469
-0.38254333
0.92767566
0.72652668
-0.34659255
-0.30459902
1.70600581
0.82385951
-0.43910202
0.60260493
-1.03297305
1.25438035
-0.32030809
-0.96888900
0.38433066
0.98377180
1.02675140
0.32649568
-0.23516749
-3.45128083
-0.11313912
0.27674577
-0.02295347
1.66213727
1.11057854
-0.50669801
1.25349236
0.36369231
1.64155233
-0.78128779
-0.77389443
0.65349662
-1.07845497
0.47208270
0.89475411
0.11869929
0.00697044
-1.64792979
-0.55528361
1.19637144
-1.34595466
0.80386156
-1.30001974
0.58813214
0.13470267
1.16121519
0.54499727
0.68447036
-0.05597388
1.27294886
-0.53634632
0.33551443
0.61758262
1.06604481
-0.51391762
-1.22951841
-0.91547674
-2.11118054
-0.25993115
0.56306815
-1.91251647
0.29735532
1.94102168
1.02235019
-0.64307040
0.51616293
-0.93715763
-0.62737256
1.15449917
-1.14921987
0.64358371
0.14417014
0.37789190
1.37022352
-2.01334643
-1.80290675
0.74547082
0.21996377
-0.40488783
0.10678831
0.30992800
1.72414064
0.55028927
0.87763333
2.06986690
-0.85200810
1.03965580
0.04164004
0.01974712
0.72851384
1.43894744
-0.03379201
0.58270478
-0.42952216
0.22473088
0.33646858
-2.34993815
-0.59842360
0.85097647
-0.76643693
-1.79085600
0.60430926
-0.66920024
-0.36196688
0.24591933
0.42644054
0.83054250
-1.46710479
0.88796997
2.34305906
0.92525023
1.26963854
1.27616680
-0.70051372
0.29428598
-0.95849538
1.15087712
-0.71419722
0.29815000
-0.60426033
-0.48180008
0.33346638
0.29995513
0.12228512
-0.08411209
1.82617450
-0.21933597
0.67147964
-0.54410857
-0.41912669
-1.65409350
0.75770366
1.07048464
-0.35733318
-0.62372726
-1.04455948
1.71091974
1.24116826
-1.38619363
-0.77908093
-0.72562748
-1.93107235
1.34553981
-0.30499688
0.24430926
0.95567930
-1.20920205
-0.26272589
-0.37139601
1.14777815
-0.06819012
-3.43164492
-0.26969382
-0.24809803
-0.35653156
0.46034333
0.50363135
-0.09766199
-1.41991305
-1.19190598
1.09568381
0.26861829
-1.05347407
0.16820371
-0.12823887
0.36026877
0.56894279
1.31856918
1.63628089
0.02864277
-0.05299012
0.95147622
-2.24574852
0.44445077
0.91534185
0.09039901
0.77167004
0.34536472
-1.03338897
-0.02056517
1.46192312
-0.03881295
-0.44070005
0.73103917
-1.20397687
-2.28076315
-0.65797782
-0.73980588
-0.51994383
0.54809767
-1.12788534
1.01304746
0.70178360
-0.56952792
1.39191115
-1.18231559
-0.11861539
0.42151564
-0.95009458
-0.78296381
0.07089043
0.07349398
-0.74320889
-0.15511924
-0.71545702
1.73807383
-2.56347322
-1.78666353
0.27470508
0.26206577
-0.55317211
0.17823906
-0.74610579
-0.89832085
0.55848545
-0.15024817
-0.26469526
1.25674987
0.92296797
1.10933375
-1.18248236
0.11139091
0.12461617
0.35937816
0.17609572
1.62568820
-1.09675646
-0.17094599
-1.13039100
-0.81312245
-0.95633256
-1.40338469
-1.60638845
-0.76952010
-0.91184723
-0.50894487
-0.30117688
-0.21500486
-0.71318299
-0.02500555
1.27716112
-1.25728416
-0.93197495
0.53138763
0.91748708
0.33687714
-0.50143903
-0.23926823
-0.50137436
-1.42187583
1.18578041
0.47964582
-1.04791057
0.71972656
-1.16471601
0.48227593
0.85601175
-0.56446105
-0.24881491
1.50009251
0.30874237
0.60482150
-0.82154006
0.99549037
-0.63765538
0.10530709
1.04200804
-0.49332240
0.08835806
-1.03634405
-0.11294010
0.76286072
-1.17823493
0.36288917
0.16178757
-0.96492767
1.15906894
-0.01894793
-0.79410458
0.18556571
0.43240106
-1.68655980
0.46585956
0.84120631
-0.73638260
-0.38943306
-0.49613360
0.05874103
-0.94519156
-1.74045241
-1.80579257
-1.53780794
0.91632378
-0.86286855
2.10898209
1.53284371
1.19561660
-0.95250505
-1.11048043
1.58236814
0.78444177
-1.45265472
0.33597520
-0.88024986
0.56391078
0.59034228
0.41246831
1.15323615
0.19514881
-1.17453086
-1.32556581
0.25345001
0.74773651
-0.87593007
1.54957664
1.47056007
-1.09335780
-2.20827556
-1.71918094
1.34102011
-0.09834883
0.56642169
0.30204093
2.30075812
-0.04764909
-0.47316498
-1.94863820
-0.42570087
0.04658147
-0.21632026
-0.82632738
-0.43708816
-1.34854352
0.19404489
-0.01661387
1.44213927
1.47625566
1.19172347
-1.71927047
-2.14510894
-0.37739745
0.34173051
0.15438499
0.17455539
-0.27314433
-0.56285411
0.95551306
1.23267305
0.37215385
1.21248031
-0.31916127
-1.55222535
0.77512330
-0.48544806
0.27524310
0.79763085
0.67276299
-1.02269459
1.34160495
0.40389511
-1.48990953
0.15611778
0.01540737
-1.81481230
0.74570143
-0.46542507
0.24652922
-1.17075086
1.30249369
-0.61292320
0.16327700
-0.87737739
-0.54810172
-0.71700037
-0.22884344
0.26979426
-1.28022778
-0.91879976
-0.78616756
-1.16957533
0.09715808
-0.05225085
-1.32074261
1.39879000
2.49390745
-1.10435891
-0.74475896
-2.33959556
-0.15600020
-0.78371233
-0.14673127
0.81010228
-1.17707026
0.64648557
0.98078978
-2.05207372
0.36467102
0.61290711
-1.08163857
0.47319627
-0.80407256
0.18246251
0.47284061
1.69453204
-0.70574343
0.20628949
0.34732437
1.05067480
-1.67850125
-0.16921781
0.19889443
-1.44705105
-2.12625647
-0.14576712
-0.27139717
-0.71718949
0.24842235
0.81572866
-0.47439736
-1.30129361
0.07184441
0.43911731
-1.19244277
0.80651742
0.56494290
-0.71493584
1.31067133
-0.15855826
0.80033529
-1.08500040
0.24036726
0.54077959
0.63979214
-2.42608356
-0.56181121
-0.12015123
0.92010200
-0.24711384
0.57771951
2.32571483
-1.12047911
1.33536446
-1.26993072
-0.39869007
1.48755431
-1.74696350
-0.63438678
0.77316582
-1.26072407
-0.36969370
-0.49397624
1.19708502
-0.63642550
0.47141638
-0.48649159
-0.39714557
0.35518640
0.31910235
-1.27218723
2.42898750
-0.21979725
0.09726759
-0.74817669
2.14850068
0.29010555
1.49184167
0.43404764
0.19139962
0.28032976
-1.21159577
-0.91341126
-1.80886269
0.54387540
0.45555520
0.35488909
-0.09103794
0.03522500
-1.20515931
1.83903229
0.23931509
0.80041277
0.49699703
0.54743707
1.29050434
0.44116557
1.94079387
-0.05799388
-0.89614147
0.91997230
0.93092251
0.19127411
-0.83544618
-1.19459498
1.26069486
1.24315000
-0.35942075
-0.34250402
-1.17566979
-0.13871498
-0.71371472
0.59934753
-0.60560310
-0.87482798
-0.71687132
-1.39696920
0.95729727
0.72302306
0.95581549
-0.09850772
-0.44695246
0.19848976
1.16459358
-0.53569275
0.05961367
-0.24433959
1.06867063
-0.15673585
-0.02222512
0.90239751
1.51988339
0.81085706
-0.26523477
-2.59786820
0.33115754
-0.24486168
-0.36792427
-1.58066976
1.32211339
-1.66332734
-0.84608603
0.45819557
-2.15712142
-0.78426820
-1.49834430
-0.38074875
-1.50202417
1.84153116
1.90408659
1.26268411
-0.11753476
0.77386051
0.01533968
-1.78562963
2.14938259
-0.58704519
-0.30267608
-0.83066815
1.53685629
-0.45258701
0.79648149
1.46597040
0.33020857
0.45567030
-0.43232018
0.27161947
0.67764527
1.07278824
0.18015555
-0.39091402
-1.06492257
0.58184350
-0.42172390
-0.86184919
-0.90786529
-0.20761754
0.14433658
3.07257748
-0.19153556
0.43453595
1.36845946
-1.50663149
1.09747183
-1.32035136
-0.67246562
0.01694598
-1.90229368
-0.34492439
0.11730003
0.33795741
0.30396581
-1.37112379
1.03838003
0.57734752
-0.55664307
1.02535582
0.21117929
-0.48788011
1.21637094
0.18879186
0.50446975
0.34107909
-0.99978739
-0.48247075
-0.12618980
1.57009566
-0.40491027
1.38512504
0.35677734
-0.01871548
-0.63470042
0.05186637
-0.07401311
0.29883698
0.83490890
-0.17619099
2.58420539
0.63400829
0.39523330
-1.29840302
-0.40440729
1.13647306
-0.92479038
0.62140608
-1.09710443
0.61502576
0.62854141
-0.22099787
-1.05570579
-0.25262591
-2.32609296
0.53372532
0.20417556
-0.27423507
0.30937359
-1.74632049
0.90744013
0.00785913
0.48019916
-0.62522721
-0.28252420
-0.69936979
0.07350095
-2.33571839
-0.26743051
-1.39450955
-0.53161615
-0.15436709
-1.02585685
-0.68220150
0.00316014
-0.59140474
-1.56892240
-1.61758637
-0.28247482
-0.64309794
1.82088876
1.37509191
-1.09524632
0.24830748
-2.83033848
-0.83107704
-0.06932236
0.83634192
-0.32509187
-0.66892910
0.83563596
-1.94384587
0.06115070
0.16790143
0.54455650
0.01364143
0.02974824
0.04266655
-0.99012613
0.46442908
0.75134802
1.16209340
0.32075480
-0.07872688
1.27078652
-1.19151175
1.07142329
0.07013446
1.48702514
0.24224769
-1.92587030
0.92797184
-2.05664325
1.33109069
-1.35242558
-0.95053339
1.97665322
-0.52002954
-0.91105443
0.37109983
0.00505851
0.25702578
-0.41470161
1.80180919
3.00547409
0.76475191
1.27799654
0.65742797
0.86800396
0.08471104
-0.28716698
0.07472627
0.59888792
0.68658048
-1.39187551
-0.20078868
-0.79394233
1.35896695
2.80582523
-1.64346957
-0.16440998
0.14185672
-0.09820330
0.87123740
-0.11480571
1.05335665
1.58441293
-0.98234373
-0.38701883
-1.49768937
1.45672822
0.32643718
-0.31046513
-0.52956963
-0.16490133
-0.50526053
-1.46170092
0.34425864
0.08695703
-1.59713054
-1.42062438
-0.25349575
0.38032594
-0.31897971
-0.57975876
-1.77593076
-0.13826932
0.16100919
-0.47857615
-0.87351018
-0.20109482
0.84720832
0.75085104
0.35122290
0.25616232
0.16546826
-0.58682400
-0.78351998
0.14266410
0.70079148
-1.53118122
-0.50990200
-1.64367211
1.12066174
-1.02310562
1.10053682
0.48638248
0.08633104
0.11611855
1.07684684
0.48324668
0.19110365
0.68597847
-0.80260879
0.29438919
-0.31692725
1.23751223
-0.93631577
1.05986762
0.05960796
0.43527371
0.38212204
-0.37827492
0.50636065
-0.29361811
0.94134235
0.03316769
0.22190027
1.04969633
-0.40354583
-0.70576340
-1.42530584
-1.19277024
0.93078023
1.01073289
-1.05154753
1.26801670
-0.70158029
0.62259430
1.07780445
1.40476966
0.55816531
-1.03132975
0.08250440
0.11074071
0.26128849
0.73240054
-1.47489440
-0.25517359
0.32746217
0.27375761
-0.09596770
-1.60713530
-0.15662706
2.06681395
-0.60133767
1.30713284
-1.16941321
1.30018246
-0.46286225
-0.99285841
1.64102042
0.60273242
-0.45941746
0.03449202
-0.26128456
0.35027179
-0.48183754
-0.34217250
0.82957917
-0.04508340
-0.51640695
0.24112138
-1.47267711
0.61028004
-0.04711309
-1.18326628
-0.26350331
1.87267864
-0.13157770
-0.43017614
0.34121391
0.14357568
0.26962957
-0.38163188
-0.14109440
-0.58975697
-0.22475165
1.90457058
0.15992652
2.26012301
-0.84504300
1.29245937
0.34326309
0.10458547
-0.47182167
0.77903789
-0.68272370
-0.20069438
-0.03568335
0.45137507
-0.96026248
-0.33005455
-1.40542138
-0.56292051
0.20292114
-0.57757920
-1.43929219
1.95710254
-0.21246085
-0.11179094
-0.47220060
1.51161063
-1.66308308
-0.54472315
0.39772356
-1.35063279
-0.54543787
-0.00743961
0.64032423
0.24074621
-0.95240140
0.81797671
-0.07858669
-1.54128563
-0.66155595
2.53949356
-0.45375267
0.60991895
1.52938044
0.31100947
-0.48233274
-0.65561932
-0.61590290
-0.05762488
0.13030043
-0.56436032
-0.09532271
-0.43807766
-2.42149019
-0.46523845
-2.57227826
-0.60556602
-0.16056333
1.28641784
0.24671744
0.96978718
0.64362079
0.31452292
2.66402006
0.67098665
0.23843841
-0.99225610
1.31418765
-0.10182860
0.17268199
0.00350944
-0.33388597
-1.33448994
0.06903167
0.58988041
-0.11185715
-2.16241050
-1.31620610
-0.62398082
-0.15307087
0.41618508
0.80927694
0.56937838
0.30656332
1.43174088
0.12642220
0.56143630
-0.28627658
0.83404183
1.86357081
0.19362274
0.32967401
0.47464576
-1.48704481
0.18980037
0.04773772
0.68097657
1.32613242
-0.49007416
-0.25533295
0.59839630
-2.06968045
2.52775908
-0.11533454
0.51678395
0.47070813
-1.63792026
1.87746155
-0.13910653
1.57056081
-0.21148983
-1.09145200
0.31765163
-1.48128378
-1.25353217
1.18742514
-0.72492558
-1.02258623
0.60751951
-0.89519227
1.43791282
-1.32679081
0.84946865
-1.39987433
0.24948269
-0.61448091
-0.09925158
-0.17939119
0.67891514
0.86369282
-0.35168010
-0.65104485
-1.24390435
-0.07857473
1.63650012
0.74029142
1.25077224
0.82110661
-0.40463367
1.08694673
-0.13008143
0.97387880
-1.20816445
-0.11470063
-0.39880094
-0.13676195
1.07457054
-0.42168483
0.09697796
0.58837116
0.92000455
1.40329051
-0.50969678
-0.43813407
0.51790702
-0.42056602
-0.62788379
-0.80737829
-0.02466431
0.33314735
1.00089264
0.90353531
-0.74236643
-2.41326332
1.57945156
-1.12798536
0.01318057
0.54251742
-0.98914081
0.94696069
0.82554185
0.08744761
-0.85263222
1.99966908
-0.57189786
0.06864373
1.74484622
-0.07541623
-1.76040173
-0.85406035
-0.42938325
0.84229815
1.07204068
-0.37496957
0.55536616
0.22884150
0.08138074
-0.18914290
0.92260593
0.26619515
1.13247466
0.17692509
-0.58877891
-0.23717524
-1.35216498
-2.70456171
-1.41308630
-1.37661469
-0.34307066
-0.51513433
0.17454778
-0.64002949
-0.67333311
-0.33980179
1.04694271
-0.36575839
-0.60551924
-2.29729795
-0.86668873
-0.53985810
-0.34619656
0.00704721
0.46919477
0.07476339
0.67521876
-0.57117009
-0.76699197
-0.88606524
-1.58426380
1.24008036
1.29679728
-0.91978252
1.12538850
-0.66769600
0.52773714
-0.66123050
0.01856587
1.25430679
-0.20282348
-0.67446935
-0.84044129
-1.13731134
0.27452955
0.78217238
-0.81007385
-1.17304468
1.23982012
-0.91814154
-0.23645304
-0.51409692
-0.09661704
1.25066984
-1.09123743
1.18447328
-1.13927996
1.27320588
-0.31016511
0.78845167
-0.18139169
0.17114660
-3.01387024
-0.68813324
1.01272190
0.71493202
0.82314104
0.15642314
-0.82797813
-0.83867574
-0.65879762
1.66548824
-0.87163645
0.00806463
-0.88872522
0.97860450
1.13577092
0.53966361
-1.65942097
1.72240078
-0.70091432
-0.48593405
-0.71401536
-0.72019553
-0.07426236
-1.56796372
0.29692712
1.22870302
0.52655005
0.79658365
0.04236153
-2.62682581
-0.28946787
0.21827793
1.01381850
-2.30977392
0.50965804
-0.29922885
1.30279779
-0.45512643
-0.80336636
-0.39567158
-0.08038430
0.30723006
-0.47230101
0.59187251
1.63134289
1.44774115
0.46989468
-0.51016045
0.19785677
1.51627338
-0.43386272
-0.24567404
0.16603082
0.04524870
0.77015460
-1.93186891
0.93886310
-0.43825957
-1.51152968
-0.65012270
2.11829662
-0.02006614
-0.31498292
-1.24476814
-0.57158017
0.37534463
-0.82283115
0.26698950
-0.72210521
-0.02082017
-0.59104776
-0.97365111
1.25462854
1.11805487
1.39903378
2.62891841
-0.40464738
0.49086586
-0.85931331
-0.83571839
-0.43480915
-0.60705030
1.32224059
1.25039935
0.64683956
1.82278275
2.24264097
1.65334570
0.87512439
-0.68823957
-1.71379662
-1.81137240
-1.03917909
0.16530523
0.25071004
0.59857273
-0.52148408
-0.42290673
-1.21810317
-1.13985026
-1.19962907
0.25234199
0.30764082
0.29729566
-0.65831387
0.72344017
-1.09655273
-0.54915428
0.54437089
-0.91120464
-2.05702734
0.09443884
0.46144757
-0.40078250
-0.21693775
-0.60316706
-0.77202672
-0.32737622
-0.65118068
-0.13201033
-0.56194216
-2.20193744
-0.06563551
0.16034375
-0.44190419
-2.08107781
0.04874516
0.96966875
-1.23460853
-1.99251270
1.12319624
-2.24367332
-0.87638313
-0.86818242
0.67384732
-0.18373711
1.12113023
0.51971054
0.67439240
-0.77549791
1.80849195
-0.76592702
0.26368895
-0.76473933
0.29690078
0.79960209
-1.24706221
1.20168412
-0.38768369
-0.26636693
1.00368309
0.60235578
0.13050471
-1.00901365
0.10786157
0.65160710
0.21354793
-0.13190529
1.25559938
-0.28234771
-0.28336072
-0.20406431
0.29521787
0.79143316
-0.69218194
0.63882709
-1.41402912
0.20217650
1.03293037
-0.39270779
0.05038504
0.26788530
0.35729453
0.99492151
0.69589365
-0.15431368
1.24641609
-0.04044238
-0.02403181
0.72391599
-0.45611763
0.71793532
-0.36213514
1.46439040
0.07253417
1.87803876
-0.39894184
1.06729388
0.09134792
0.65241176
-0.14052734
1.49051797
-0.60437757
-0.54782486
0.83695322
0.44169560
-0.50844055
-1.06057489
1.08307958
0.57543498
1.29713643
1.06576705
-0.25380680
0.63516921
-1.91179812
1.12227464
-0.91059834
-0.24077424
-2.79174423
2.21686482
0.08937297
-1.90766180
-0.78865808
-1.93012047
0.63580048
1.29734480
0.79092902
1.54681301
0.63642228
-0.58380586
0.54877573
0.19976872
0.04870988
1.36369896
-0.77455014
-1.25397205
-0.11546360
0.13977000
0.25300285
-0.46735889
0.50092107
0.80745238
0.44428977
-0.90678328
-0.52395689
0.62964314
-0.96697986
2.32794356
-1.82683372
-1.34840846
-2.07167602
1.10705543
0.67812556
-0.88897294
0.63858032
0.86273241
-1.07435238
-0.06811587
0.18061677
0.35047880
2.60284758
0.85088605
0.52582085
-2.17567992
-0.64638650
0.39320588
-1.43260360
0.39201164
-0.54687929
0.30788240
-0.04538611
-1.68760097
1.33574033
-0.48091328
1.34096646
0.13810565
-0.50073576
-0.62812346
0.71272618
0.53814143
0.88967955
0.44551641
-2.01327586
0.25117645
-0.06068189
0.07989874
-0.16521618
0.04396605
-0.19186105
-2.52654290
-0.84707195
-0.44223112
-0.78332436
-0.03803471
0.63131565
1.59727502
-1.00157201
0.23915751
-0.67883682
2.33005381
-0.13768572
0.19306478
-0.62166011
1.26951778
0.97634166
1.68072951
0.22858013
0.37203082
1.14841676
-1.85829794
-0.97859877
-1.46992505
0.90263504
0.54721701
-0.10226741
0.14632522
0.02771357
0.81238782
0.26172978
-0.12013215
0.62521583
1.20765841
1.54383028
-0.75637746
-0.13880537
0.03164853
-1.22589827
-0.39586788
0.29809806
0.13596001
-0.29291898
-1.00745118
2.06516623
0.17084004
0.66105413
-1.42289853
-0.86608374
0.64776897
-0.00104847
0.97526336
0.75319266
-0.27922550
-1.90356457
-0.35565883
0.43529525
0.12391952
-2.34587979
0.30668825
-1.47236276
1.94579232
-0.72069907
-0.13599157
1.08179522
-0.84925252
0.88756341
0.64902967
1.37379420
-1.40273583
0.32424897
4.28438568
0.04263824
-0.32913342
-0.40858346
1.27845800
-1.22801340
0.58397710
-0.47425741
0.66725034
0.66135454
1.71501386
-1.66523242
-0.21260040
-0.57882714
-1.91782784
0.08276317
0.39606348
1.38945413
-0.30359697
-0.67053956
0.70344812
-0.17874871
-0.82254261
-0.89987469
-1.09063041
1.78942215
0.95559800
-1.56645894
1.23282361
2.23391724
0.33946282
1.93697631
1.99850941
-0.39622381
0.38831019
-1.39829075
0.41006699
-0.35259429
-0.00684246
0.10537053
-1.90538239
0.03050516
-0.88049853
-1.23057711
-1.67509007
-1.38021100
1.34304225
1.43603253
0.11032606
-0.54348457
-1.78026652
1.31143963
-0.86267334
2.78527260
1.95821202
1.90736830
-0.88651109
0.37588936
0.31332791
0.01743805
1.21037078
0.73630041
0.44737220
-0.50194693
-0.55634511
0.70290589
-0.80321467
0.24810039
0.17311127
0.34222043
-1.00675118
-0.50621647
-0.67375618
0.10534458
-0.07555334
0.34559652
0.27093333
-0.10041933
1.21029425
0.26513407
-2.16673613
0.14237288
0.42262101
0.32804051
-1.88172996
-0.75538582
-1.10922074
1.66811097
0.23706354
0.06794509
0.80575770
-1.38815784
-0.80614400
-0.13527000
0.78676289
1.06659555
-0.43800983
1.31612444
-0.27417400
-0.58398777
-1.02491295
-0.31682938
0.78099424
-0.85237694
-2.70074272
0.52808642
-1.62972391
0.83644718
0.13710143
-0.07915338
1.60387111
-0.88189656
0.81396770
0.08466020
-0.01195005
0.72721213
0.01139724
0.74502343
-0.41488427
-0.78376347
-1.33256507
-0.66026223
-2.01093793
0.43588820
-1.43960309
0.28652817
0.67733574
0.80080467
-0.42507952
0.14221610
0.15582232
2.07353997
2.06868243
-0.42753148
-0.02954295
-0.37286404
0.40479961
-0.85772514
-0.92387301
0.53300810
1.82218754
1.75722039
-1.43621516
0.17453140
1.55357754
2.17154574
-0.72498530
-1.23617661
-0.88145626
-2.04855990
0.05262144
0.34319505
-0.26836374
0.76776397
0.25275061
0.17981619
-0.61389816
1.59904981
0.24821530
-0.24746758
2.29385662
0.86805063
0.14859517
3.14173675
0.54919612
-0.05349831
-0.12020015
-1.70539105
0.19616589
0.56589270
-0.50007170
0.26650897
-1.47699118
0.01839399
-1.29976487
0.82003385
1.43355298
-0.06622508
-0.46434751
-0.28112298
1.57132018
0.41040826
0.01907772
0.97585368
0.05092180
-0.39883965
-0.10248327
1.38817835
0.04442656
0.57533038
-0.80721807
1.24827194
1.02274609
-1.21935332
-0.44924438
0.31158540
-1.09013009
-0.76431644
0.06533965
-0.13929072
0.31672657
0.27789202
0.03148492
0.41970763
-2.27203655
-0.00212429
-1.11572814
1.17136073
-0.33524939
-0.64878291
0.99390376
-0.94062203
-0.27327839
0.73729020
-0.07580662
-1.18061483
0.21009111
-1.23735189
1.18424261
0.43527189
-0.46612495
-0.65346825
-1.18617773
-1.00958896
-0.54110777
0.84233373
-0.90479374
0.75983155
-1.28580356
0.37468043
-0.63600129
-0.07351287
0.83659846
-0.10950475
1.10558903
-0.28972483
-1.96072447
-0.52502984
-0.73157603
0.67892110
0.98842514
0.98266160
-0.60924268
1.00948083
-2.91568708
0.14438412
0.57374287
-0.36401653
-1.08914387
-0.25296468
-3.05667043
-0.65003473
0.54006499
0.10438219
-1.19087541
0.76867604
0.20461383
1.09095132
-1.45696950
0.72217858
-1.45070851
1.23448539
0.58115238
0.18017179
0.88863683
0.39324182
-0.26453891
-0.58163583
-1.77484453
-0.72123820
-1.74594510
-0.06355863
-0.96508050
0.04466508
0.13475019
-0.01307811
-0.03596790
-0.76657301
1.38049793
-1.05619884
-2.50303864
0.74168891
-0.59527946
1.28008735
1.73939681
-0.67405570
-1.39542615
-0.37964579
-0.43284518
1.56587839
1.41889215
1.40465081
0.58975512
0.82584006
-0.18002580
0.79129738
-1.80732918
-0.62200564
-0.07795476
1.47271562
2.34551048
-0.27385291
-0.02529099
0.11275305
-0.88769370
0.43167067
0.63639879
0.26465988
-1.41088390
-0.40703976
-1.23143649
-1.13755333
-0.29250899
0.03506901
0.99678469
-1.39526153
-0.02510246
-0.14333557
-0.62506258
-0.35859999
-1.19533050
0.19763784
0.19092292
0.38884065
-0.91995120
-1.49180245
-0.44135860
-0.50571114
0.19898283
0.22182979
-0.68516576
-0.13094412
0.79523468
-1.36227012
-0.25673166
-0.47948104
-0.91596222
-0.17632897
1.40676367
2.44824982
0.21073663
-1.00094259
-0.47669387
1.00347257
-0.56327683
1.31863403
-0.53152502
-0.10878246
-0.54316115
-2.08731961
0.30800804
0.63897789
0.43800819
1.05209804
-1.49698853
2.20078111
0.35721976
-0.37220880
-1.59284544
0.83343828
1.98860919
1.57764637
