-0.11279807
0.31520709
1.55318129
0.27294928
-0.98063666
-0.83728290
0.96879256
2.04973030
1.26928854
0.72890842
0.24852148
-0.38914251
0.55375028
1.21941376
0.64543331
0.31211615
-0.33574599
-0.64054054
0.04240666
-0.84912550
1.16424322
-0.53438276
0.70654571
-0.15188019
-0.49571744
0.38050666
0.78517812
0.93050677
1.68800378
0.82582569
-0.52841806
0.84519219
-2.15061474
0.19854359
0.25232467
1.27849078
1.51972353
-0.49795747
-0.95767581
-0.43909693
1.36287558
0.06873772
0.76582509
1.78899825
-0.29674464
0.19595176
-0.44583133
0.34581354
1.05487323
1.37570405
0.81062961
-0.66939515
0.91700524
0.70053792
-0.43397275
1.19915867
-0.36902606
0.22539453
0.96225923
-0.42021629
-1.25421369
-0.53259438
-0.26810056
-0.05306910
1.09206665
0.66602474
0.00918789
0.80314839
0.74924266
0.47684157
-0.68096948
-1.47858429
-1.36711955
0.72246677
0.02694926
-0.62783515
-0.28640509
1.71636367
-0.11974940
-1.06834424
-0.59623265
-0.44525549
0.50334555
-2.01722813
0.84757811
0.69353318
-0.40857545
-1.44476938
0.42205352
0.41042367
0.47054806
0.21562167
0.18398385
0.35725418
0.46779665
-0.33447146
0.11901310
-0.18424676
0.97872329
-0.95041329
0.91858268
-0.36650693
0.15164042
-0.96581769
0.01339805
-0.23760881
-1.26640439
0.13438937
-1.53215778
-2.14072299
-1.20079780
-1.35512650
0.62641823
-0.11616953
-1.30959642
0.31587452
0.53808188
-1.01713669
-0.81143963
-1.16416287
-0.78903073
-0.15455839
1.37806904
1.00292289
0.34052676
0.08332375
1.40280080
-0.04369983
0.16999429
0.16148844
2.27723646
-1.02721620
-2.56485629
0.46397626
1.10562396
-0.08919336
-1.11658406
-0.43116879
-1.51688612
-0.12518820
0.55147523
1.18111396
0.90348852
0.26193866
-0.11881417
0.33064872
1.57495856
-0.87460893
-0.51332510
-0.75800675
0.96610564
-0.13275090
0.61796731
0.71522063
-0.07128438
1.85903609
-1.31701636
-0.32874984
1.19626856
0.01294201
-0.08390334
-0.43184620
-1.51834261
0.15821159
-1.61350751
-0.68703884
0.57145441
0.62943321
0.55270821
1.61747897
-0.03203389
0.72558749
-1.24136460
-0.71972895
0.26589945
1.21127832
0.10731754
-0.05749168
0.43277365
0.05773729
0.04583880
-1.68612862
0.20209906
-0.33837935
-0.36601666
0.33588260
1.09566057
0.91693127
-0.58487046
-0.77112895
0.21053660
1.70453143
-0.29245442
-1.12385595
-0.83179313
2.31880999
0.60804713
-2.87431026
-0.04302303
-0.46686572
1.46447170
-1.06136990
0.02731216
0.19239235
2.31625867
-0.88904852
-1.83230007
2.27409935
-0.99338919
2.38208079
1.97418809
0.21863642
-0.54074359
-0.31083560
-0.38819847
-0.15188958
1.05649638
-0.24471597
-0.23598838
0.55991870
1.31077015
0.33236852
-0.10404167
1.25056243
-0.07142349
-0.46825048
-0.32471710
0.12301837
0.53806585
0.25785747
0.73684227
-0.22161014
0.94605702
1.20473564
0.26758021
-0.47153518
-0.37182429
1.26342535
-0.39111912
0.17441916
-0.89160395
-1.02264488
-0.86227185
0.71376324
1.59454596
-1.07846963
0.20884933
1.35458148
-0.12922670
-1.32815588
0.25095534
0.66703540
0.68673003
1.11538696
0.23622344
-1.06220317
0.74397862
0.20265408
0.49384657
0.04820683
-1.41441762
-1.21259332
-0.03532429
0.09159704
2.03938675
-0.75750440
0.09126218
0.13312946
0.68273103
0.36120436
0.86663312
0.05670211
-0.95381731
1.01344717
-1.27709317
-2.01283097
-0.20303361
0.70244563
-0.42125782
-0.04448011
-1.91877449
0.15569846
-0.04933887
0.66245282
0.38775262
-0.87387097
0.94892800
1.16848123
-0.21484300
-0.11170800
1.08729517
-0.53623027
-0.40190732
0.71379817
0.70354050
1.43453443
0.73131579
0.39513484
0.80664146
-2.63536954
0.41504216
-0.11671555
2.44724822
0.48943615
0.00442431
1.87671733
0.15640748
0.22004838
-0.24305749
-0.42299616
-0.67930549
1.38717413
1.91523731
-0.26212344
-1.14121151
0.38658425
1.70049608
-0.48039004
-0.57508159
-0.17239659
-1.52458727
0.38675949
-0.66247940
0.19837506
1.25644600
0.25938758
-0.70072818
-1.84251022
-0.42283273
0.12632617
0.15281816
-0.21738508
0.09317574
2.32785702
1.48497403
0.69004279
0.56743217
1.06230974
-0.11110570
2.11079550
-0.41594630
1.58304834
-1.52416027
0.14014645
0.13240638
0.35372388
-0.26737329
1.25775766
0.98591059
0.38588861
-0.86768723
0.50574714
2.26225686
0.85962546
0.23446636
0.05147046
-0.16549273
0.19855155
-0.65107518
-2.22417831
0.00735844
-0.02246004
0.49112204
-0.80607247
-0.36686027
0.38722050
0.63359463
0.30797216
-0.44411942
-0.23405813
1.35748029
-0.57494491
-0.79724288
-0.76249182
-0.39629802
-0.09221729
-0.51755637
0.32267472
-0.34374869
0.55892497
-0.58393109
-0.63361365
1.72596753
-0.80975658
0.16576870
-0.52142096
1.13612103
0.33349615
-1.17356622
-0.93475944
0.40734044
1.11785531
-0.09051279
-0.15663081
-0.36185917
-0.45758188
0.17403048
1.07789838
-1.05102253
-0.51696283
0.00004320
-1.30123663
1.48765004
0.43079108
0.32332653
-1.09058475
-0.41563895
0.60534823
0.80925596
-0.79839402
-0.33639848
0.98442459
-0.60702258
0.11855865
-0.42627794
0.83078396
-0.15142618
-0.81287330
0.83778805
0.32246974
2.13516974
-0.90720284
-0.20157880
-1.23007691
0.98723859
0.58754855
0.86440539
-0.68953091
-0.04783013
0.47825271
2.11914468
1.45349061
0.07500583
-1.25588477
-0.28698400
0.45764700
-1.07010257
0.20469752
-0.73784608
0.48845771
-0.63286889
0.31942886
0.12911835
-0.65193605
-1.12794161
-0.92076325
1.00772059
-0.56734324
1.05274451
0.61878115
1.12935340
0.59110856
1.37178707
-0.80995053
-1.44898808
2.02367425
0.20449615
-0.61724919
0.65333599
-0.53877896
1.03947330
-0.40066007
0.54197729
0.73486531
-1.31802356
0.26856694
0.31958711
1.73066628
2.12558484
-1.95734727
0.57709986
0.84859431
0.32685158
-1.03487289
-1.37470162
2.67199326
0.16742721
-1.58671427
1.24003196
-1.44457102
0.83022046
0.85866141
-0.56833124
-0.29008436
1.44412994
0.97468615
-1.78784585
1.16156650
0.28895107
0.79512960
-0.88053477
-0.00131561
0.69108498
1.27306640
0.10314233
1.32796383
-0.18877885
-1.05453205
0.80410624
-0.81739783
-0.86269361
-2.35856175
0.35545197
0.52754837
0.56476289
-0.53727889
0.32687649
-0.22217830
1.57313991
0.14356290
-1.47207546
0.33695930
-0.25613034
0.98385543
-0.90560234
0.55315506
0.87538344
-1.34879267
-0.18038143
-1.02846014
-0.64868385
-1.69240034
-0.47669455
2.25255060
-0.68838400
0.79381508
-0.04130599
1.13907540
1.64719009
-1.82709670
-2.14790773
1.15058339
-1.79784763
0.50018793
-2.51137280
-1.18871200
-1.17777669
0.76109523
-0.17483868
-0.18323405
1.12721217
0.31491482
-0.46155524
-0.34525359
-0.65731543
0.36279225
1.92722285
1.29455161
-0.68314606
-0.90784329
-0.03411014
-1.51309431
0.23670025
-2.03035831
-0.84562516
0.43613660
0.14764732
1.44243503
-0.10207959
1.66392756
-0.11242434
0.41038114
0.51894623
0.56469256
0.92474991
0.24802637
-0.37031737
-1.02972162
0.24106812
-0.26901004
0.49189323
-1.35928023
0.51608437
-0.50127071
0.50744200
-0.19861968
1.25326192
0.77972782
-1.22436285
-0.76520014
-1.16663194
1.53916132
1.55335176
0.47846821
-0.20091464
-1.00856054
-0.81618410
2.19680905
1.20122492
-0.52075475
-1.10413563
-0.32874379
0.35025048
-0.07752854
0.19174612
-0.15744953
-0.83194387
-0.08981239
0.90869957
0.48778635
-1.15939605
0.25162864
2.02962017
-0.52284431
2.71538782
-0.00548803
-0.21980445
-1.78601742
-0.76464635
1.17650032
0.21308111
-1.58738923
-1.21734357
-0.13560523
-0.87405992
0.00619145
0.29674852
-0.98210424
-0.27539772
1.21201015
-0.37858611
-0.05728461
-0.43045136
0.67330134
1.51660848
0.22860032
-0.81269479
-0.31907976
-1.33049238
-0.95147353
0.29269737
0.37135804
0.33750331
0.85102916
-0.44754371
-2.13802838
-0.68406969
-0.61292541
0.40365860
-0.24877715
-0.86047983
-1.84851944
1.16300654
1.37233818
1.39503086
0.37865177
-0.29771167
1.10490561
-0.27819338
1.00397277
-2.02517509
-1.20051134
-2.23289132
-0.97814304
0.16461869
1.57456398
-1.02852631
0.68562371
2.05605268
0.33914781
-0.06296556
0.26929176
-1.14020419
-1.03492236
-2.00298333
-0.60339129
0.16028786
1.29855025
0.29069623
-0.46123180
-2.11329007
-0.13229658
-0.15132444
0.09831496
0.00700517
0.65262395
-0.71584672
-0.25740853
-0.10982775
0.64661312
0.32144329
0.87570626
0.94787985
-0.83798671
-2.74367452
-0.72177511
1.78348148
0.11316440
-1.45624280
-0.06649064
0.87959063
-0.39635232
1.46680975
-0.46552235
-0.08241924
-0.97358835
0.31038898
2.10065532
0.25891104
-0.30437398
-0.16599521
-0.04722498
1.34861171
0.97607869
0.42481837
-0.10318560
-0.68720514
-0.01980961
-0.07018816
1.35403454
-0.55518985
-0.60694158
0.14165501
-0.85674250
1.93642187
-2.03690958
-0.76098198
0.13287017
0.12141869
-0.17645754
-1.22543275
1.50938892
0.09241276
0.77728903
1.11950457
-2.02650642
-0.58855861
-0.58206671
1.00099659
0.05384869
-0.11305958
-1.11478472
-0.46877581
-1.57018018
0.71533835
0.40016034
-0.71366793
0.12383940
-0.39991450
-0.01620802
-1.45341861
-0.17322376
0.95437068
0.40768561
0.11671218
0.63564569
0.69658393
-0.50337291
-0.77342230
0.58055860
-0.48068479
-0.63663626
-0.48744103
0.28348628
1.23539126
-1.59424186
-0.14354491
0.59221780
0.77169520
0.84576982
0.49652144
-0.06757352
-1.82406521
-0.32738930
0.34868762
1.77444792
-0.24725981
0.70420539
-0.03148187
0.04938539
-0.49516338
-1.09412324
0.76998448
0.96770346
1.22129059
-1.27410662
-0.48141536
-2.07917142
-1.16064584
-0.06805450
1.12349248
-1.50697029
-1.79625142
0.36127976
-0.63698745
0.53831077
0.59408647
-1.35367358
-0.16511250
0.05652684
-1.05931962
2.06333756
-0.05243409
0.78778523
1.07748902
0.12157743
-0.06824275
0.14021264
0.11525377
-1.19081533
0.32414156
1.78603208
-0.10162622
0.52766019
-1.25590193
0.21479066
-0.27659494
-1.38915181
-2.16670775
-0.99198031
-0.28515288
0.78590846
0.10403468
-0.86421162
0.66976660
-1.27796328
0.30816787
-0.23641357
0.32523304
-1.28624940
-2.25455713
-0.60991430
0.58202720
-2.57161617
-0.49354136
1.60861933
1.37915123
-0.20456538
-0.34990221
-0.03349493
-0.27154759
0.69312537
0.58506042
1.75816810
0.17585887
0.00914692
0.37214798
0.52937233
-0.06361207
-0.53318220
-0.51652426
1.28109825
0.47124940
1.05162990
0.09164070
-1.42605054
0.34339738
-0.20339084
0.90230757
-1.68817270
0.90235287
0.31044465
0.54054290
1.18091214
0.83414215
-0.48396388
-0.17203906
-0.04109982
1.84562862
0.37206742
1.02776635
0.58446634
1.23378396
0.46948653
-0.91904688
-0.69758934
-1.98077011
0.31868675
1.68694067
1.80311513
0.13629696
-0.61736000
0.19307524
0.31217340
1.00660205
-1.21866882
2.23934603
0.67021525
-0.64039254
-0.18870287
0.14363478
-0.45105717
0.42139775
-1.13627779
-0.52621680
-1.52158356
-0.39378017
0.20268291
-0.07762339
-0.68805099
-0.83472902
0.13922141
0.06001937
0.82934421
-0.06409331
0.41361773
-0.63495260
-0.45557830
-0.06072079
0.71561331
-1.32185400
-0.81959456
0.36737821
-0.37286514
0.76460570
0.69018412
-0.15474980
1.25550938
-1.56499100
1.03194106
0.08675174
0.55707359
-0.07217067
-1.19927347
-0.82068098
0.67076707
0.20405008
0.77075499
1.88878679
0.03597812
0.56332785
-1.00263882
-1.16539991
1.40658796
-0.58056086
2.82610512
0.86479509
-0.87708014
-1.80733132
1.55347252
0.37444195
1.19166780
-0.54871494
1.52056956
0.84491599
-0.02588087
-0.34221947
0.39043942
0.60148549
1.73162389
-1.22873437
0.99237323
-0.06142138
-0.99162292
0.04404473
-0.77861267
1.11044538
-0.25908667
-0.29656714
0.14113212
-0.44376174
0.68463993
1.02396560
-0.14776610
-0.36270159
-1.32117474
-0.14291263
-0.04814072
-1.47882223
0.22282933
1.10514879
0.60537350
0.06962091
-0.43320352
-1.81792390
0.54917735
0.25731763
-0.56267762
-1.33931446
-0.41325322
0.06614488
-0.64982730
-0.82060266
1.13740742
0.64867091
1.90458977
0.13715699
3.03328276
-0.21640168
0.52145290
0.56771618
-0.65764648
-1.03373718
0.33141279
0.27946109
0.45867759
0.63838464
-1.69553590
-1.24225247
-1.20533788
-0.31666675
-0.04431752
0.09314396
0.98569399
-1.81159878
-1.41852772
-2.56234717
-1.16549885
1.42394185
0.03504794
-0.91734004
-1.02468550
-0.59241641
0.25584430
0.96850419
-0.22214554
0.38668981
1.08456481
0.98565257
-0.42260838
-0.37758631
-0.54155755
0.56675559
-0.95701236
1.11713696
1.03439474
0.31301293
0.30280021
1.76475561
-0.66966921
-1.03316033
1.00726724
0.10856478
1.84625113
-0.07899143
-0.76290530
-0.71593356
-0.73141307
-1.52752614
0.36321771
-1.21737897
2.31952024
-0.80108184
-0.00566123
0.44713598
-1.07914209
1.35783267
0.61061287
1.10846579
-0.62426776
-1.03293645
-0.27644315
-0.25390306
0.93958396
-1.20709836
-0.15305398
0.04242807
-0.43050587
-0.00187294
-0.65170842
0.35312223
1.41843057
1.56318402
0.10858957
0.55813730
1.89144516
1.23840916
0.19395708
0.47606698
0.31813818
1.97440314
-0.92077529
0.12183405
-0.28375819
-0.55331427
-0.32216752
1.90501964
0.75239897
-1.24720991
-0.07305024
-0.75938869
0.60809028
-1.09376085
-1.00283968
0.64600599
-0.90756875
1.13682294
-1.16662979
0.03835256
-0.68093419
0.45714822
0.20138425
-0.10857998
-1.09227252
-1.02315807
-1.34465075
-1.37584615
-0.33347160
-0.90289420
-0.40623876
1.34870791
-1.37934756
-0.16581620
-0.10169405
-0.68994379
-0.49661475
0.61255556
-1.55319285
0.92729241
-0.93726176
-0.10334018
-0.45169207
-0.03179904
2.72899532
-1.16153657
-1.71868694
-1.72762060
-0.10694567
-1.42046928
-0.70737284
-0.75370723
1.12971139
-0.77084947
0.60747612
0.13582601
-1.63655889
0.28116298
-0.07571238
-0.79060513
1.77647877
-1.33407414
0.20325419
-0.69255847
1.05939984
0.75214612
1.39206290
-1.00910842
-1.36737394
1.12779272
0.95437628
-0.67063951
0.57735384
0.32334319
1.95285058
-0.43672803
0.89821237
0.32114685
-0.54264402
-0.05430338
-0.22696231
0.39309123
0.52003968
0.62941653
-1.76361442
-1.40147567
-0.13763733
0.74196398
-0.76615602
-0.21346797
-0.11237869
-0.28922880
-0.75204420
-0.86833608
-1.74827433
-1.00326085
0.28922743
1.00989664
1.23854601
0.34565398
-0.41901454
0.76682693
0.46550852
-0.71891463
0.14030403
-1.32738185
-0.28075537
-1.11269796
0.82166064
1.11403549
-1.52130365
-0.35841173
-2.29844451
-0.77925992
1.18913400
2.17323828
-0.01474575
-0.65422904
1.49915695
-0.02397101
-0.26672149
-0.15910184
-0.08705705
-1.35380232
-1.83945322
1.11264002
-0.46941218
0.11550114
1.77744174
-0.03439455
-0.66450953
-0.09297807
-0.05341662
0.73696691
-2.66442466
1.27614093
-0.78550076
1.47146285
0.04195739
-0.64189595
-0.46898839
0.39606547
1.38997555
-0.86775941
-1.91702676
0.30498314
-1.17510903
-0.68324435
0.40144509
-2.32942104
-1.74260426
1.15239954
0.04879235
0.27160162
1.04903054
1.96688032
0.18255003
1.20076942
0.90783089
0.11178403
0.89259303
0.34048578
-1.65942776
-0.22748484
0.21110445
-0.59156090
-0.31570578
1.24137223
0.72659749
1.09719598
0.33344167
1.88523519
-0.27593982
0.73292696
1.45274866
-0.80921435
-0.68162048
1.13816333
0.11778203
-1.40556908
-1.09466255
-1.27751911
1.63156474
-1.33612585
-1.40201366
-0.58409661
1.09064031
-0.29576156
1.07205510
0.83693552
0.04928382
0.54132152
-1.69511318
1.09744906
-0.45117709
-0.93902028
-0.27617359
1.80687904
-0.04112288
-0.60628188
1.57080746
0.13107730
1.91508484
-1.05139029
-0.26445594
-1.49129999
0.09382991
-0.73341519
-1.31606579
0.69703996
-0.28390339
1.46523476
-0.29355711
-0.25373721
0.79191434
-0.24780895
0.35808358
0.74683118
0.35379577
1.54859698
1.58091271
-0.61779743
-0.33965233
0.72114706
-0.34287712
-0.24053660
-0.79560542
0.28399342
1.21394789
0.64130121
0.48413628
1.16737044
-0.13573007
-0.58807892
0.16725741
-1.08577383
1.29523349
1.41233766
1.55399489
-0.70881361
-1.27258837
0.07712549
1.54922974
0.14132144
0.36424336
-0.10654060
0.08484141
-1.21606112
-1.66674566
0.45751601
1.51467443
-0.19423017
-0.40035242
0.88569558
-0.10603023
-0.76987082
0.53154159
0.15507817
-0.07126227
0.29837760
-0.02013116
1.76802313
0.98231870
-2.63287830
-0.36636069
-0.82150960
-1.25868547
0.80253035
0.03884658
-1.54826415
0.16972132
0.99271053
-0.01817299
-0.19674778
2.27539015
-1.00525308
1.60073221
0.25544360
0.75094557
-0.63947874
-2.94055414
0.73481125
-1.40509439
0.64532846
-1.45636857
-0.15812531
-0.43300641
-0.19162568
-0.34618634
-0.97772133
-0.00406799
1.64581716
-0.78237313
-1.68232799
0.98946357
-1.24675643
0.71178502
2.48030853
0.44701144
-0.20507771
-0.43608314
0.05109360
-1.06930912
0.86622339
-0.61244911
-0.59181017
-0.63217235
0.50294375
-1.43777418
-1.19660568
1.72139573
0.71308374
-1.14151227
-0.31824294
-0.03027793
-0.92738175
-0.76378989
-0.97465777
-0.81570530
-0.93446493
-0.77903724
-0.66242343
-2.10841799
0.40145212
-0.57198304
1.31368148
0.60569465
-1.55246270
0.44889081
-1.06933415
0.14267491
2.46702862
1.42327404
1.57973230
1.33622897
0.63802850
-0.33595672
0.61798942
-0.91798991
-0.11827623
-1.14385891
-2.13259506
-0.27878863
1.66036606
-0.39680281
0.51200134
1.51068926
-0.90851307
-0.13038266
-0.18700668
0.66811877
-0.50658476
0.14505537
0.81248444
-0.07315674
-0.39308506
-1.03963828
0.11174750
0.66131240
0.23705256
-0.08314318
-0.31384867
-1.03883088
-0.83626825
1.21765947
0.83300978
0.05306090
1.05626929
-0.92348903
-0.38624719
0.26656282
1.11264765
-0.34668574
0.24076088
-0.04523251
-1.07201517
-0.77982253
-0.07524836
0.61327124
-0.51343620
-0.05602054
-1.94395173
-1.49014866
-1.16966641
0.41492599
-0.77745593
0.06728108
0.94751281
0.02243237
1.14401650
-1.09521544
1.90595496
-1.75641704
0.68371838
-1.99279714
0.60077465
0.79620802
0.81663597
-0.11890810
0.92025286
0.55513912
-0.76972663
-1.44411325
0.56890953
0.19254805
-0.79169226
1.20108652
1.93108726
-1.30681908
-0.86731476
0.36488250
-0.07359789
-2.04285860
-0.56718045
0.26463515
0.22604214
0.81260288
0.75411409
-0.29015049
0.66325855
-1.33594644
-1.37174857
0.70714206
0.21829309
0.50806111
-1.25579202
0.15367952
2.20873117
-0.05413387
0.24010424
1.57010972
-0.33269086
-0.14888738
0.86149281
-1.38232660
-0.90686530
-0.27799189
1.44525301
-0.11786921
1.03052831
0.66417307
-0.59941196
-0.71281338
-0.45016521
0.42685920
-1.53306937
0.77680725
0.66088378
0.93238944
0.22175100
-0.39749625
-0.30739924
-1.76213646
-0.32722053
-1.12583876
0.16796799
0.45342392
0.27556702
1.56831157
0.66947019
0.50799406
2.05984855
-0.46786374
0.29083234
1.24724543
-0.84410375
-0.40578008
0.03483094
-0.50826836
-0.59933424
-0.23637435
-1.07854366
-0.67544734
0.53986305
0.52726561
-0.56680107
-0.35656005
-0.39023656
0.55853480
0.66427475
0.40122247
-1.54389203
0.47360802
0.02502937
-1.67816412
0.98534846
-0.97149295
-1.39126384
-0.27822044
1.40066421
1.31277740
-0.47564325
-0.19813757
-0.43141890
0.08560585
-0.77324706
0.99948633
0.34937188
1.14835215
0.45683557
0.38402158
-0.57447094
-0.31537333
-0.03142592
0.03299341
0.77667761
-1.07869351
0.44528720
0.24761604
0.01052647
1.43977141
-0.17937712
0.42775324
0.55521929
-0.05296233
0.15480416
0.58536953
0.05506593
-1.48136127
-2.09511328
0.17507891
-2.54044247
0.03924318
-0.79612577
0.52462697
-1.20707440
0.57316279
0.70543879
1.63604617
1.12395740
-0.63331795
1.04221559
0.63622868
-0.90615058
-0.28019008
-0.01706030
-1.66228700
0.04094928
-0.68798709
0.98915207
-0.73134869
0.06985120
0.17160143
-1.69568157
0.80019438
0.03176130
0.61615783
0.85737622
2.70458007
-0.14061655
0.02357437
0.49236125
-0.93837529
0.78066355
1.35844183
0.52200097
0.36359596
-1.34132588
0.76630169
-0.16709442
0.53668696
2.79443336
1.17728901
-0.23867792
0.46043018
-0.52219629
-1.44118619
-0.12192202
0.24226455
-1.61861587
-1.34047937
-0.66001451
1.94675148
0.19684452
-2.30819011
1.22357500
-0.57200319
-0.08497149
-2.13872480
0.66963774
-0.47763252
0.02994247
0.47093591
-1.12218750
-1.34765124
1.21575320
-0.30851266
-0.18394384
-0.09230666
-0.35247689
-0.99059021
-0.14236344
0.83435029
0.64354247
1.23072517
0.09217820
2.12261653
0.28487715
1.47051680
0.62628406
-0.67745078
0.82192731
0.20868929
-1.49296999
-0.07186085
-0.34574068
1.33757639
-0.50968283
1.20889747
1.60832798
0.31507209
0.33562452
-0.50648743
-0.24049382
-1.33150172
1.41447413
-0.02875414
-0.49773076
-0.08185114
0.39667812
0.14344236
-0.24816839
0.54985946
0.93377644
-0.72579575
-0.14993751
0.14657103
0.11263344
0.63655061
0.04392470
-0.14666429
0.58399862
-0.51574069
-0.81373113
-0.78087091
-1.07582390
-0.55288386
-2.56700373
1.29063821
1.08562207
0.56030679
-1.25115144
-0.98100847
0.02390780
2.08535290
0.70202416
1.23922217
0.76212299
-1.96239364
0.69106281
-0.32738614
0.32957739
0.92347533
-0.42259720
1.06834531
0.50365961
-0.78887588
1.96960783
-0.49257776
0.58132273
0.11776768
0.07440306
-0.97357333
0.65181130
0.66195893
0.09410623
0.64119422
1.29738462
-0.33017135
1.28324461
0.22069955
0.76374960
-0.10380655
-0.00566216
-0.29709414
-1.35776830
0.83540988
1.24156833
-0.03455455
0.05341974
0.51550198
1.77038455
0.01440483
0.08422356
-0.44620138
-0.83373868
-0.59686339
-0.30319688
2.62338305
-1.31389058
1.44260025
-1.29880881
-1.67812932
-0.08313084
-1.87662876
-1.43247271
-0.87982804
-2.20833731
0.28770438
-1.81831551
-0.00202791
1.87520444
0.46732575
1.02725542
0.48375046
0.00253565
1.15478051
0.26884943
1.65842366
0.65029001
-0.82980168
-0.37638414
0.37598547
-0.56865138
1.12530136
1.33563113
-0.30095312
1.64257491
-0.30192989
0.22491576
-0.03180417
-0.40555906
-0.46365967
1.01979995
-0.95538038
0.22710249
-0.65530592
0.46344325
0.15824647
-1.20973742
-1.09497750
0.79122072
-1.44690430
-0.81307232
0.30012444
-0.24443780
-0.23340401
-1.14253414
-0.15654334
-0.52836871
-0.53578842
-1.31880248
1.47023308
1.01693213
-0.85152328
0.45298767
-0.06522576
-0.42370197
1.10273194
-0.58202893
-0.25519228
0.15164833
0.02106482
0.51555926
0.56379282
-0.81190723
-1.13633609
-0.07360912
-1.97049534
-0.45536265
-0.47691482
-0.31299835
1.33015251
0.31823286
-0.34983841
1.38275933
-0.37218729
-0.24189688
-0.32439205
-1.06087446
0.02841979
-0.06109089
-0.29250154
-1.08532870
0.20616853
-0.65109670
2.22631693
1.38879502
-0.42765719
0.65794122
0.70851183
-0.96835643
0.93126738
-0.21265206
-0.35043362
0.33360299
-0.03935528
0.68191350
-0.45208630
0.71560341
-0.67926461
-0.93102068
1.01752007
-2.62687969
-1.52946699
-0.99932456
0.36290416
0.90399414
-1.65702772
-0.49194238
-0.20940720
0.70881790
-1.02041137
-0.43687639
-1.51349103
-0.84312755
0.31570321
0.30393216
1.02769756
-0.45690176
0.06031574
0.25141156
-2.17083478
-0.56942463
-0.27288285
-0.75284928
-1.13542879
-0.51273292
0.68599617
-0.88027024
-1.49061823
-1.15386915
-0.53811771
1.21499717
-0.14298031
-0.67674977
-0.49330980
0.80628854
0.47803798
-0.56571811
0.37783819
2.32303953
-0.60647631
-0.18265723
0.05564233
0.11816223
-0.84731656
-1.33456421
0.40848997
1.85206115
-0.95909423
-0.72171557
-0.11148788
-1.15384769
2.17519617
0.54256201
0.82719159
0.09254000
2.55583310
-1.17008746
0.43751743
-0.82087165
0.84945655
-0.58633620
0.26465297
1.95479190
-0.26910567
1.49609029
1.17514265
-0.29750088
-0.98367584
-0.61371166
0.09360623
1.46435666
-1.03440380
0.30916625
0.23964112
0.02516818
-0.32343209
-1.08293664
0.48041952
-1.31535172
1.15012515
1.17734194
-0.51956677
0.27434096
-0.23465729
0.25474098
0.86680710
1.80473220
-1.90487933
-0.87334889
0.02703540
0.08638129
-1.11702228
-1.14648557
-0.52767235
-0.00885228
0.46927831
1.40508521
1.14623833
-0.67561942
0.05273115
1.07022047
-0.39533353
-1.80008698
0.01008666
-1.14356852
-1.19212377
-1.42634344
2.48253608
0.43760705
1.49144912
0.26586270
0.67740059
0.31807545
0.54311335
1.71453834
-0.77537167
0.90654337
-2.03095746
-0.50147998
-0.33085099
-0.82920140
1.55949736
-0.45415005
-1.86514497
1.30491436
-1.04363072
0.66932470
-0.15561041
-0.38758084
1.13739777
-0.10936042
-0.14713304
0.88425618
-0.67596048
0.42897353
-0.35324022
-1.38750052
-1.41842926
1.18282676
0.52517027
-0.15199055
-0.10909875
0.83228779
1.17368436
0.43170929
-0.67258286
-0.50063527
-3.72075319
0.94868642
-1.38000238
-0.86419290
-0.28540167
0.00733424
0.69265264
0.32356754
1.00875831
0.85951197
-0.65396583
1.23534691
0.21153954
0.12608387
0.50422192
-0.69679737
-1.14910924
0.12242590
-1.45587826
-0.43530247
-0.06036144
0.82415384
-1.02176619
-0.14994396
-0.99307388
-0.90133250
0.93615490
-1.38941073
-0.97935605
-0.10199744
0.71014708
0.09562755
1.43274570
1.51324546
-0.96733654
-0.94254631
1.50819814
0.61176598
0.74345499
-1.52131104
1.28073716
-0.47332799
2.27227759
-0.79799491
-0.12997742
-0.73174298
1.13322246
1.82255960
-1.47010410
-0.41218311
0.45723116
-0.15259469
-0.62085801
0.02136374
-0.50703424
0.35818484
0.16274521
-0.34632367
-2.73840141
1.07266116
0.00990710
-0.44035700
-1.06680584
1.28203177
0.71609026
-1.97063494
-0.53752494
0.98443669
-1.22119832
-0.83853614
-0.75447494
0.11451578
-0.65042907
0.56737220
1.48201370
0.89137590
0.02648705
-1.08345366
0.88121980
1.09549987
-0.42044392
-0.72131407
0.42855886
-1.67330611
-0.50246859
-1.07705235
-0.31900653
0.35441148
-0.97500068
-0.07273265
-0.45758703
0.29885677
-0.57098788
-0.49424753
-1.83352268
-0.81041676
-0.03664441
0.74502778
-0.00790896
0.78923798
0.53445834
0.65106118
-1.23828149
0.47306061
0.14334846
0.79529160
-1.21325648
-1.74630749
-1.70120203
-1.18598938
1.94455588
1.54977453
-1.60744524
1.27160370
-1.39915860
-0.25452977
-0.86671150
-0.65015173
1.49603879
-0.14383148
-1.02023447
0.01265376
-1.32289553
0.06447360
-0.29696080
-1.05899501
-0.56755203
0.20018500
0.11501714
-0.42212090
0.04622057
-0.87133044
0.42162037
-1.56117129
0.37438017
1.71355247
2.18244624
1.34868515
0.25753310
0.54529893
-1.67468882
-0.05122149
-1.33415127
0.17185284
0.54954100
-0.27457419
-0.61802584
-0.85085398
-0.91667688
-0.38395947
0.41001850
-0.67582572
-0.70363307
1.57298028
0.84099936
1.48543119
-0.45378053
0.82799822
-1.03804767
-0.76067072
-0.03281786
-0.38543552
0.28603390
-1.73968470
2.07155538
-0.89421040
-0.51442248
0.34361246
-1.13830423
0.65238929
-0.44186145
1.59542024
-0.23126988
-1.31062293
-0.96297675
-0.69340557
0.46494749
1.58901620
0.05635132
0.25416550
-1.48919725
-1.06534052
-0.02128999
-0.24250191
0.69130331
1.11640728
-1.48737621
-0.19714749
0.81425488
0.47556108
-0.82897145
0.36847526
1.35028338
0.58477956
0.53573966
-1.26645160
-0.66783017
0.70131618
0.50038397
-0.53594005
-0.36746603
0.05543091
-0.80055052
0.92141175
1.04873347
-0.71337414
-0.10554133
0.64169490
-0.38746643
-1.25829542
0.18215136
0.00778231
2.38412476
1.02911794
2.10729098
-0.17679137
1.27601731
-0.61631751
-0.14727569
0.61551893
-1.62024558
0.28286389
-0.04362754
0.29096600
0.54995686
-0.15699418
-1.71365070
0.77741450
0.77626324
-0.25814840
-1.23616195
0.35888237
0.56702751
2.04481936
-0.60575300
1.04166138
0.06309429
-1.49805820
-2.37400579
-0.41591856
0.08204041
0.68212527
-0.94471174
-0.52085304
-0.19849379
-1.17527270
0.12030350
1.22306216
-0.56391239
0.14695863
-2.08455229
1.77411342
-1.79453993
-1.25394535
1.32868755
-1.05211723
0.11806420
2.08557725
0.55547369
0.88541406
1.85439563
1.26746595
-0.05391978
-1.48711038
0.46066591
0.11562041
-0.36452362
-0.45308650
-0.05505734
-0.03222062
-0.26787144
-0.47549778
0.25725791
0.40957463
0.19306111
-2.64736414
-0.83707094
-0.58691949
2.41498232
-0.46706721
0.47089645
-0.10141364
-0.17283012
0.08440977
-0.30476400
0.88886321
0.23198166
0.82551420
0.17854504
0.73745692
-0.13731515
3.24385643
0.83660793
-1.66590405
-2.03088260
1.12289810
0.23458345
-0.48316213
0.00214540
-1.59295034
0.97829175
0.99100745
-0.93954074
-0.35150993
0.02754119
-0.21281841
1.23481107
1.07605529
0.11348844
1.29382038
-0.09897747
1.48981893
0.69594026
-0.99112499
-0.15834121
2.22017097
-0.74442416
0.35072297
-0.43367422
0.41378799
0.59191966
-1.47136104
0.12867723
0.30314174
0.63100058
-0.65513408
1.00695491
-0.99043632
-0.00221095
-0.36365035
0.94202405
-2.38092160
-0.45254633
0.29938167
-0.16734038
-0.37553898
1.34953308
1.37570596
-0.48844618
-0.27587181
0.58628982
-0.38844621
2.78562403
-0.67819244
-0.38135377
0.57477045
1.80400515
0.20130083
1.40395272
-0.63962966
-1.78742063
-0.82866812
1.66296899
-0.50868118
0.64760512
0.05969357
-0.65273505
0.72640336
-0.44239900
-0.94624609
-1.76007378
1.82723391
1.07767260
-0.24686037
0.35717848
0.13669224
-2.27709055
-1.48058188
0.21601626
-1.05616701
0.76073271
1.22624433
1.47445166
0.69304389
0.28677419
-0.48752603
-0.47479430
-0.20395653
-1.44028318
0.47839496
-0.23783842
0.19447787
-1.79682040
0.41647252
0.52999359
-2.74728203
-0.61189270
-0.48659030
-2.13830209
0.75684929
-0.84976339
0.57186276
-0.08268559
0.87443650
1.81269169
0.41712120
0.45071697
-0.86486083
0.52043581
-1.51083136
0.34554753
-0.19436967
0.31002730
0.09255788
-0.57582015
0.35856667
-2.03628612
-1.20313120
-0.19199428
-1.16192830
0.55340165
-0.59110010
-1.04068685
1.16016662
-1.06203318
1.48217571
-0.96824056
1.93155277
0.36539727
-0.22225052
-0.90876114
-0.13954057
-0.19416660
-0.66073835
-0.63425070
1.28486395
0.76587814
0.58436280
0.66685331
0.26460141
-1.53715694
-2.11926317
1.96022093
-0.51297653
-0.76052183
0.45534024
0.87449294
0.37559086
0.79717737
-0.49936554
0.43087777
-0.82855392
-0.30660808
-0.57720387
-0.06826161
-2.43600011
-0.06354943
-0.66562748
-0.29687116
0.19756685
0.69139338
-0.85314566
0.32668129
-0.32520592
0.12850994
0.52384859
0.68160403
1.53798211
0.22987719
-2.12274575
0.01681099
0.28633431
-0.60021102
-0.13935451
0.92977542
0.49614429
-1.41775632
-0.10493969
-0.26717061
1.30969536
-0.91489917
-0.69665378
-0.68722099
-0.59314317
-0.64484560
-0.90207911
1.97720051
0.29435760
-0.62909770
-1.40554643
-1.52929020
-0.43094850
-0.98541766
0.39241186
0.41408297
1.04232073
0.80986935
2.39559102
-0.51744336
0.80635363
0.15171236
-0.00853041
-0.39124462
1.21718061
0.97198087
-0.69540513
0.36947432
-0.05731888
-0.09547711
-0.63255769
0.07066225
-0.13987885
-0.45778272
-1.47446668
-0.93926913
-1.34938002
1.17085803
0.06793296
0.79950523
0.65554619
-1.22078812
-0.43830517
-0.35990974
-1.16039705
-0.48477173
1.44925439
0.02442472
-1.52552342
-0.28854001
1.57104242
-1.36585736
-0.59291250
0.55620009
1.22526646
-0.85385734
0.66718465
-0.83962369
-0.20273201
-0.58860981
0.55228132
-0.46539447
0.79345906
0.65274191
0.47566554
2.12923121
0.44059947
-0.49372938
-1.43816555
-0.16267775
-0.06528451
-1.95284975
-0.29594505
0.15891138
-1.87016046
-0.50169957
0.27476898
-0.44989032
0.86520386
-0.88236213
-1.56072450
0.36969328
0.18395337
1.47779787
1.76608086
-0.80204666
0.06577776
0.26123846
-1.48168945
1.41778195
-0.64616704
-0.09424361
0.47571585
-0.92795658
1.22944927
-0.29053044
-0.56704748
0.44626614
-0.00144333
1.58778632
-1.21339893
-1.62671220
0.16351765
-0.63841331
-0.52116919
-0.19436863
-1.13661981
-0.64884359
1.07919466
-1.61173677
1.14533699
1.42415476
1.56788707
0.89807773
0.39466965
-1.14743876
0.01004250
-0.68339163
0.19778645
-0.64481246
-0.48335519
-0.56160778
-0.25997964
-0.00790795
-1.34018755
0.42807609
-0.43755138
-0.87199360
0.56158543
-1.09083736
0.18098657
-1.32873285
0.07345464
0.94221586
0.27561349
-2.16866994
0.54893154
1.29211867
-2.50250125
-0.14603640
0.69402021
0.63150096
-0.03335815
0.41431341
-2.19465446
-0.55852926
1.01659608
-1.41478360
-1.09172118
-0.61404908
0.64548486
1.25749886
2.32240748
1.53499162
0.83323532
-0.31963384
-0.14676507
-0.89732295
-1.63681412
0.50666213
-0.08678138
-0.75274056
-0.08878954
-0.44994870
-0.42494667
-0.62263072
-1.67985153
0.91340107
-0.33803460
-1.31207740
-0.50768250
-0.10973603
-0.12146993
-0.17412615
0.15489040
0.64434046
-0.80046642
0.05854198
-0.40080941
-0.99493438
2.19252539
0.25332728
1.17695999
0.93715537
-0.73952353
0.40179127
-0.57224727
0.60254741
0.05238027
-0.73060340
0.02007573
2.12414217
0.69323575
0.92954695
0.18020979
1.28367090
-0.43441406
-0.31880453
-0.26256099
1.56690502
-0.42311043
-0.35718510
-0.18311974
-1.55136406
-0.25535017
1.43163681
-1.16543078
0.63696277
-0.43765208
0.54228473
-0.47760397
0.16291402
2.84956598
0.20808338
-1.89365125
-0.63755548
-0.11807103
0.14375219
-0.99345994
-1.26877606
-0.26403788
-0.78075349
-0.77781034
-0.09511275
0.27044123
-0.94803852
0.46560881
0.84741336
1.48967826
-1.80517685
-0.41453022
-0.03087487
-1.10235596
0.49478421
2.43410087
-1.09509933
-1.03903961
-0.45912895
-0.49795273
-0.46150979
-0.33327815
0.66044188
0.28607056
0.85506952
0.33514667
-0.21150455
-0.28105339
0.53764260
0.46993616
0.55708569
0.63902330
0.35874313
-1.07740307
0.69498181
-0.39270255
-0.28543147
-0.74355805
-0.71222860
-0.14861332
0.32363209
0.03746956
1.73617375
-0.96579349
1.20832837
1.32723594
0.44291022
-1.07788289
-2.09781885
-0.43573213
0.62571651
-1.36532736
0.79348207
-0.95873392
1.08704114
-0.63088530
-1.70467103
0.75898641
0.26144233
-1.21528018
-1.93878341
-0.85745299
0.72027761
-0.45175299
-3.24611187
-0.66583788
0.18166468
-0.76436430
0.80980766
0.91374731
-0.46904886
1.87902665
1.58799219
0.70872098
-0.00426438
-0.99543440
0.97970271
1.00801921
-0.81759650
-0.03390059
-0.03388366
-0.62432295
-0.36894289
-0.49289629
0.21313173
0.45673218
-0.31083307
0.79621792
1.54146326
-0.38803580
1.32870889
-1.47926557
1.91198838
-0.42022225
0.30097228
-0.04200493
-1.68355858
0.73244482
0.41116270
0.15025011
-0.93666327
0.21564807
0.28166375
1.00304043
-2.21472859
-1.31525004
0.30729434
0.44612914
0.31437740
1.50682473
1.18249130
0.36636680
-2.77643132
0.68017691
-0.30500022
-1.65419912
0.85781544
0.43844786
0.18820165
2.02242160
-1.63227105
0.32838720
-0.22546093
1.47272313
1.89159644
-0.07446245
0.29537618
0.05941410
-1.55064869
2.54853439
0.43449658
-0.22097990
-1.47033882
-0.85375863
-1.17219090
1.03037179
-1.20198798
-0.54794037
-1.42748165
1.22230029
1.28876638
-1.44671023
-0.21969016
0.13365661
-0.77590984
0.58990580
0.79700983
0.87963557
-0.59231019
-1.41438878
0.55372566
-0.15971069
0.27117121
0.37378886
0.63971084
-0.30327266
0.82133144
0.47297782
-0.80208600
0.55528486
-0.39107716
0.83002484
0.42894644
1.19340682
-0.34589794
-1.06440496
-0.49137434
0.39369279
-0.71069211
-0.99407059
-0.20022435
-0.67017055
-0.04200925
0.94803548
1.16492510
-0.61930883
0.31098077
0.33122712
-1.42238939
-0.48261130
1.14165521
-1.40552354
0.92953068
0.16171956
-1.37575614
-0.67507446
0.93235570
0.03521629
-1.32711208
2.60626197
-0.40563825
-0.65094024
-0.70078188
-0.29401705
0.81862420
-0.42184040
-1.33013320
2.43604231
-1.95492315
0.64022368
0.14902413
-1.80449152
-1.04537940
-0.51645005
-1.41608465
0.70586067
-0.57707018
2.44026709
-0.36228403
-0.21098566
-1.70959163
1.52138519
2.51185155
0.15409979
-0.07870644
-1.02926302
0.21206205
-1.34182620
-0.18427180
0.38441852
-3.45311356
-0.64063561
-1.85694540
-0.53957033
1.14679599
1.61797464
0.92022169
0.57198173
0.83733469
-0.67560369
-1.29415250
-0.52331245
-0.60904485
-0.64283353
-1.91500640
1.17183983
-0.06831212
-1.28483605
-0.45875987
-2.23868489
0.96435320
-1.31980550
-0.37631205
1.06165326
0.06464174
1.50393426
-0.37814748
0.48952284
0.77589250
0.08216458
-0.92329067
-1.24403942
-2.22034431
0.78094387
0.70159698
0.29775754
-1.23559010
-0.02746114
-1.54024017
-0.44401813
0.81296796
-1.64484501
-0.43211484
-1.12806869
0.41830844
0.45580387
0.59427369
0.99435270
0.38144299
-0.76442218
-0.25502896
-0.35692754
-0.29262286
0.21867071
-0.77450234
0.31766665
-0.82677203
1.03126478
-0.41257977
0.98301190
-0.07369740
-0.25113732
0.47869065
1.45115423
-0.08815189
-1.66467357
1.67302954
0.25136194
-1.08876741
0.24982522
0.30627522
0.24019784
0.80731630
-0.01297364
-0.02742889
-1.18464887
-1.13200355
-0.12518744
-1.96266854
-0.72316152
0.57947987
-0.43244398
0.69985670
2.41431260
1.05484521
0.57955468
0.35466346
-0.49226463
-1.01138246
-1.94000936
1.30061710
-0.12873825
0.29433697
1.89825606
1.01186335
0.66039550
4.19304085
0.81228864
0.46841079
-2.33536983
1.08158481
0.19244158
0.64908028
-1.51033747
0.45842576
0.47995797
-1.33406675
1.13683569
-0.88409799
1.69062448
0.03810056
0.86789143
-1.76545429
0.93670028
0.52555007
-1.12176991
1.86960673
-0.27683279
0.64691359
-1.39438462
0.59565949
0.77113342
0.59766459
0.03939207
-0.95973575
-0.15410653
2.66644478
-1.67946708
0.72517014
-2.32494044
0.31362155
-0.67026502
0.36425611
2.40625525
0.44332370
0.24837919
0.44246796
0.54686040
-0.34893042
0.16192737
0.99219608
2.23706603
-0.62915671
1.91083443
-0.26400548
0.59675527
0.53170264
1.79702032
-1.59019101
-1.53397357
0.77478069
-0.52910203
-1.11293411
1.47349703
0.72323811
1.14524305
-1.00545192
0.17834914
-1.34605849
-1.18865359
-1.78703368
0.89457661
-0.44163963
0.42516959
-0.60792857
-0.22077551
-0.31356153
-0.84561211
-0.70518470
1.01814854
-0.68418413
0.41779792
-0.67164791
0.19806135
0.39898387
0.94652456
0.72486144
0.25188187
0.39385936
1.16814351
-0.56773269
0.08671971
1.02386463
-0.11006335
-0.26171452
0.18374386
1.13533580
0.09718648
-0.31201315
0.92400455
-0.39854652
0.27940384
1.37603617
1.03744400
1.17755580
0.72751242
-1.01740801
-0.03214886
-0.44381201
0.57459611
0.48298737
-2.10028267
1.20272195
1.95987797
-0.89880711
0.82902008
-0.60924602
-0.99665821
0.31463888
-0.75434947
0.73124236
-0.30649158
-0.39195415
-0.53900158
-0.85917246
-1.83575058
0.75637460
0.78267092
0.54565024
0.03994405
-1.21850824
-0.36439592
0.18826565
1.03827095
-1.41902065
-0.75151426
1.56903708
0.37547204
-1.06232178
-0.57750726
-0.24003489
0.65981883
0.77952951
0.30991444
-1.11110234
-0.09865046
1.07921994
0.69265389
-0.40913138
-1.60847592
-0.65657115
0.21206336
0.50282133
-3.11794829
-1.00432646
-0.97408909
-2.23447561
0.50060868
-0.33425149
0.70311952
0.33795652
1.39030719
1.38592851
-0.80768108
0.15032510
-1.20433378
0.80529374
1.22076726
-1.22147977
-0.22298574
1.40156412
-1.65683043
-0.00420469
0.08592284
-0.44552156
0.73291117
0.60511917
-0.08201972
-0.17264234
-1.81430387
0.37462509
-1.23693371
0.68060315
-1.87382615
-0.84728259
-1.41694391
0.12346130
0.75665230
-0.05683148
-1.17971730
0.16067746
0.81151897
0.22417046
-0.85013330
-0.22582555
1.46668088
-1.11855960
0.31164977
0.12519322
-0.22922535
0.71519357
1.73825455
0.18956618
-0.74242473
-0.87472141
-1.18928850
-0.10798950
-0.09250373
-0.23872146
-1.02158737
0.26547509
0.02968217
0.35369563
0.85345387
-0.97073531
0.19651103
-0.46024486
0.34711877
-0.98889214
-0.05772166
-1.73029149
-0.30580661
1.04319417
1.77042103
0.18184179
1.18590057
-1.35731971
-1.07317710
-0.27013206
0.10102681
0.55763036
-0.36440217
-0.71303982
-1.48102510
0.53558135
-1.36867380
-1.49785745
-0.48776594
0.74892926
1.05303228
0.43214303
-2.34126139
-0.36356068
-0.56254578
-1.27774704
-0.49969634
1.90521073
-0.87779468
0.27782065
1.24712968
0.32200813
1.97247767
0.09392629
-0.28398088
0.19197366
0.24940033
0.36711326
-1.15022051
-0.30443102
1.51481080
1.25879133
0.25707173
2.09843302
0.82789701
-0.90470654
-0.39513633
0.69732821
1.49300003
-0.22813104
1.43808782
0.03328849
-0.40981013
-0.01660515
-1.39552748
-1.70506811
1.16079104
0.12741041
1.13095295
-1.89481068
-0.90746212
-0.35970163
1.05412662
-1.32554770
1.92762983
0.63396168
-0.72630721
-0.95538968
-1.03686297
0.38586783
-0.44419914
-2.18147349
-0.17155689
-2.29608011
-0.54680544
-0.05142700
0.98868942
-0.70902902
0.50093681
-1.03564537
-0.81476045
0.15956403
1.09338331
0.77314407
-0.47818923
0.57879430
-0.06203382
-0.35232928
0.03031350
0.31208950
2.09310913
0.49452010
-0.60845834
0.50607646
-1.81557941
0.82868618
-0.18646783
0.54005271
0.27838483
1.08209181
-0.32506874
-0.14159685
-1.62997460
0.58333951
0.18480179
-0.56703174
-0.12347795
1.62849009
-1.67113900
0.23487462
-1.21891427
-1.07619870
-0.79420340
-0.72949159
0.50227916
2.57831335
1.55338037
1.42428064
-1.63580239
-1.06307805
-1.02944410
1.53235650
-1.56605530
1.05372524
-0.12627412
-0.34203270
-0.83124697
1.51502693
-0.33460701
-0.06150569
-0.51567644
0.21534313
0.40574569
0.13113061
-0.34980491
1.09841061
0.25810805
-1.12739289
0.33767977
0.64859056
1.17396641
-0.74114704
-1.29339957
0.12588416
0.68984014
0.21266799
0.04232656
0.22107393
0.18764095
-0.66295952
-0.43514934
1.25244009
-0.96413791
-0.39159963
0.31640807
1.37537420
0.43084723
0.36279395
0.17931655
-0.69500488
-0.16210829
0.58974952
0.50767899
-1.25929606
-0.25230467
-0.08779542
-0.13713571
0.15494768
-0.41648924
0.55023557
-0.81778991
-2.04902506
-0.16802843
-0.30674550
0.06560047
0.84795064
-1.03970242
-0.46763858
0.44944939
0.75163525
0.44274127
0.33697912
-0.72639418
-1.56926429
-0.93277949
-0.10357411
-0.61656791
1.16759241
-0.59500110
-0.15459992
0.35937560
-0.15983856
-0.49320138
-1.03297281
0.00770692
1.74504018
1.06805193
-1.18186355
0.82449561
-0.22615844
-0.56131065
2.38100934
-0.98116636
-0.58969116
0.07209847
2.18367052
-1.45314395
-0.51332033
-1.17905617
0.04216722
1.09172511
-0.61729109
1.19824088
-0.36284581
0.42084423
0.67233086
-0.75380456
-0.41738170
1.94709194
-0.00513227
-0.81933206
3.13866043
-0.29554492
0.21571690
-0.05293174
-0.62318856
-0.56860650
0.35826063
-1.28145719
-0.89487588
-0.93215948
0.68166077
0.32596788
-0.44788840
1.15793645
0.29746613
-1.08016801
-0.07183892
-0.09530392
0.16949642
-1.42873156
-0.18892863
-0.00544806
-0.16158287
0.14913589
-0.36043456
0.48194215
1.48095417
-1.56306744
0.11696447
-1.11392951
-0.71311665
-0.32813680
-0.29978758
0.11422648
0.15071258
-2.15943599
-0.82673895
0.29468381
0.85343039
-0.61276847
0.20897906
1.78456664
-0.92201394
-1.40531170
1.34961975
-2.01534796
0.34527409
-1.14082253
1.51193225
-0.12995274
0.48037648
-1.60381794
-1.60859025
-0.66015482
-0.99168462
0.43272236
-1.22757995
-0.38958719
0.05655440
-0.66013712
0.47641829
-0.21049081
-0.29296103
0.39235792
-0.84630525
1.09162498
-0.14454179
-0.65721899
0.40098464
0.50381142
-1.40958822
-0.44204646
-0.03499469
0.33330226
0.92652005
-0.20756292
-0.66831231
-0.39343214
-0.95625472
2.26990795
0.23492707
-1.05795121
1.32132232
-2.10001993
0.57247376
0.59398460
-1.22253656
-1.85417390
-1.03544211
0.55941027
-0.52785581
-0.96560568
1.86593044
0.64718550
1.60911000
-0.03045479
0.69974869
1.10377634
0.65652072
0.56988674
-1.69536507
-0.31248209
-1.01128566
-0.42448357
1.29720032
0.06571031
-0.54842395
0.05708560
-0.16564468
0.34330523
1.38208354
0.35791668
1.76428652
0.13739014
-0.51122874
0.67761880
0.10894601
1.33743370
0.11332022
-0.82416469
0.41831571
1.30665350
-0.12218843
-1.21728730
-0.22890605
-1.99122083
-0.12185404
-0.23378839
1.32768965
1.16601324
-1.40466142
0.53224432
1.36084211
-2.53204250
-0.37724999
1.02980268
1.18358719
-0.41184056
-0.43376467
-0.48635650
0.61753350
1.42522836
1.14671040
-0.01604754
-0.92343330
-0.99592412
-0.53558016
0.59436828
-1.42942166
0.72107387
-0.03130981
0.66361690
-0.66602051
0.05402366
-0.02951472
-0.92359340
-1.22089648
-0.22996664
-1.10675418
-0.86550587
-0.45424101
0.21001534
0.46122226
-0.58908606
-1.07274818
-0.69554764
0.25839064
0.64974856
0.38688311
-1.62335336
0.56772554
-1.19903874
-1.60063291
0.48022979
1.37944829
-0.86934018
-0.71575028
-0.78902698
1.05117881
-0.81047893
-0.39522764
0.43769053
0.91379100
0.55982894
-0.35084176
0.35718599
-0.11408560
0.78856057
0.14416669
0.55658984
-0.72931314
0.28882217
1.27677560
-0.07458459
-0.07174895
0.88197929
0.73959643
0.72869855
0.91063040
0.36916324
1.08225024
0.00482795
0.75803697
0.44671205
-0.09323449
1.50199890
0.80634964
-1.78254306
0.87713975
0.78894788
-1.23350728
-0.20748147
-0.24066204
0.99667102
-0.61283582
-0.18544072
-1.66497040
-1.02282572
-1.97896552
1.32898605
0.02983757
-0.17879176
-0.45204487
0.75518757
0.69677001
0.58031958
-1.29840374
-0.48395419
-1.67758620
-0.82762051
-1.53417659
-1.42349470
-0.32702860
-0.57418859
0.16157809
-0.13061439
-1.20598924
-0.66049451
0.73485684
-1.42622852
-0.29439044
-1.44853330
-0.42046276
0.29308957
-1.21814942
-0.12482139
-0.93481624
-0.34771615
-1.69134378
-0.09973619
0.91683716
0.19519655
0.66508645
-0.32656860
-0.60532945
0.78451055
-0.98339617
-0.93722934
-1.31483769
1.96814466
-0.07377972
0.94922513
-0.95312673
-0.36601305
-0.74765623
-0.67853332
0.58513182
0.05277302
-1.44718015
-2.17042661
-0.45334300
0.47299382
1.11716306
-2.92813563
-0.55680364
-0.58403581
-1.54015386
-0.46200478
-0.09076467
0.17902501
0.09612979
-0.88662052
2.11944437
-0.46601945
-0.48703721
0.41393057
-0.24770379
0.42727271
0.00972957
1.14974475
2.13091207
1.11413085
-0.22996107
-0.55593234
-1.21181190
-0.79096538
-0.11674185
-0.06144705
2.23904157
1.53056777
-0.92474109
1.30839229
0.83757043
0.49710447
-1.03640175
0.94714367
-0.94396335
-0.95768124
0.24410181
-1.13576090
0.59671229
-0.95968366
-1.03058743
-0.72108197
0.78081334
-0.02541721
0.36651233
0.43212447
-0.07742604
-0.96987587
-0.24963126
0.13806768
-1.91226971
1.36729574
-1.23237932
0.51424736
-0.83144474
0.12488728
0.39173064
-0.43738937
-0.28205591
1.80399787
-1.44845915
-0.86515105
-1.20512903
1.43310297
0.01335670
1.29864228
0.92088765
-0.77179837
-1.14669514
-0.49176386
0.44076914
0.25592369
0.87972492
-1.63816357
-1.30443382
1.06022370
-0.03950638
0.00821232
0.34464636
0.13967158
-0.39138141
1.37616587
-0.64689946
-0.61312610
-0.61004949
-0.82208300
-0.59878641
-0.48992571
-0.92789114
-1.12101436
-1.24961257
1.00160527
-1.20162451
-0.43257308
0.55576557
-1.86494267
-0.10241360
0.97316277
-1.05769527
-1.80209434
2.24127769
-0.29187253
0.15564883
-0.93834543
-0.41602659
2.06399012
-1.39474952
-0.42807254
1.24543035
0.11774984
0.36210027
-0.83027542
-0.80976182
-0.54753411
1.24293721
-1.43613148
-0.56711465
-1.89929748
-0.44493935
-0.75117564
-2.09265804
-0.47911525
0.28419319
-1.47059989
-0.09512781
0.13338001
1.31243753
-0.17257868
0.40237060
-0.88852471
-1.29416478
0.10693686
0.70044786
-1.14417839
-0.28084302
0.89108062
-0.25348446
-0.34876987
-1.55156231
0.32410470
1.25134408
-0.63953817
-0.22998251
0.72463924
0.93977374
-1.63594806
-0.05561547
0.35733569
-0.26111123
-1.57830894
0.60165733
-0.02429433
-0.14916545
-2.51460814
0.92810494
0.69165796
0.58824915
0.88025093
0.37470081
-2.55456734
1.46345246
2.52369356
0.51470691
0.62105054
0.56410676
1.21865845
1.65033078
-0.41313195
1.38005316
-0.49758837
-1.32378483
-2.21252894
-1.70685768
0.64471340
-0.77578384
2.30396914
1.87873888
-0.39389521
0.92917466
0.30292195
0.93492270
-0.28800625
-1.13505673
0.23137228
0.29138917
0.84821624
0.48062751
0.61503714
0.36735275
-0.02106692
1.03331888
0.81104374
-0.40220985
-0.98445147
0.37200162
0.63319856
1.21552813
-0.40521902
-2.15938759
-0.47800392
-0.08082516
-0.40765563
0.27348247
-1.30816078
0.50169170
-0.96177113
0.58699876
0.78229934
-0.15975849
0.54335123
0.39045358
-0.51069683
-0.39950100
-1.01089346
0.40013263
1.54720795
0.00600150
-1.16844440
1.97403121
-1.42322731
0.00886542
0.63786572
-1.72447956
0.32010293
-0.13926968
-0.10523010
0.05202691
-0.36201882
0.01732397
0.85067922
0.67497081
1.56297529
1.42020798
0.03543340
0.52718472
0.06282714
0.45938161
0.32323402
-1.05642569
2.20267963
-1.58929718
0.44436589
-0.45999449
0.01441004
-0.67667902
-0.87893015
-0.34512022
0.34442645
-1.06096399
0.61394924
-0.46075344
-1.37749088
-0.13972564
-1.67659032
-1.72984338
-0.72923476
-0.28104335
-0.89698863
0.09118109
2.38228035
-1.33594358
0.39589456
0.53470385
-0.41389474
-0.50825471
-0.52062601
0.08792212
-0.49107274
1.15646207
-0.27522346
-0.28208572
-0.01690952
-0.15752271
-0.35959250
-0.03625574
1.29008603
1.49252963
0.08143260
0.69750786
0.17342710
-0.34081358
-0.88202024
-0.50082624
-0.93156290
1.44613326
0.89290428
-0.83081186
-1.77271485
-2.14300370
0.31080723
0.54653400
0.46330121
-0.25569394
-0.01250014
0.19194633
-2.60498452
-0.33432376
0.43980440
1.31047046
0.76588887
-0.15117465
0.60519993
0.33149150
-0.96804726
1.05704534
0.78814787
-0.00901781
-1.96801579
0.06461082
-0.01811926
-1.39532936
-1.24633253
-1.09776211
0.01459736
0.59725398
1.68470466
0.50118458
-3.03997374
0.23062430
0.70207489
0.72009748
0.01498707
-1.27790654
0.93770468
0.83558488
1.25595272
-0.13561682
1.12494338
0.43334115
1.00005591
-0.36786914
-1.36811984
1.41691959
-1.24946856
0.24401213
-1.06592405
-0.99817061
-1.14727283
-1.10767925
0.87913579
-1.05633354
1.36320376
0.70835477
1.44342256
-1.23819900
0.64111733
1.32532334
-0.08273637
0.23043695
-0.65020484
0.59336632
1.15765619
1.26799476
-1.69752669
-0.02705022
-0.98127776
0.10272705
0.19585218
-1.39335358
-1.42065740
-1.32362819
-0.33070263
0.91117257
0.70288110
-1.01795661
-1.29477227
2.12884688
-0.32624835
-0.85754329
-1.09761417
-0.24460825
1.39087451
0.94590074
1.28661370
-1.11844349
-0.41924646
-1.64763141
0.52513760
-1.67290378
-0.17300352
-0.84655648
0.59210992
-0.45013541
-0.94660151
-0.19082366
-0.50804043
-0.10021129
-0.92816216
0.59789610
0.12769477
-0.56500936
1.20004964
0.48854434
-1.21013725
1.49967253
1.90738702
-0.47352386
0.16610698
-0.70363778
0.35902289
0.95411777
-0.18100943
-0.24963666
-0.16450331
0.38545060
-1.61026037
0.51577359
-0.42793590
0.98555833
-0.29503417
-0.91167974
-0.60589457
-2.36666274
-0.48134816
-0.43195203
-1.75206363
1.02070701
-0.98326707
-0.88729966
1.30955446
0.22370349
-0.02808314
0.07490427
-0.48890558
1.14187086
-0.35824275
1.64023602
-1.04422104
0.41407835
-0.01903768
-0.71139348
2.83738041
-0.45495924
-0.64934731
-0.12202303
0.08676616
-1.18557775
1.30005658
1.82732201
0.41619441
-0.73271036
0.72345865
1.68808806
-0.52475947
-1.46095800
2.13337135
0.30246139
1.31370604
-1.15257537
-0.94005245
1.74563742
-0.53772014
-0.98231292
0.17497914
0.83320773
-0.02826789
-0.71568930
0.40676755
-0.03474015
0.16321222
-0.81625992
0.24429676
-0.72242802
0.43703538
-0.55312222
-0.67001134
1.81333137
0.89737248
-1.26554894
-0.06148978
0.92240262
-1.02790928
-0.12705612
-1.04259098
0.59974539
-0.91796798
-1.13531506
-1.17483985
2.12102127
0.80850744
0.70862418
-0.18345596
-1.23863292
-0.39284006
0.51699793
-1.25150168
-0.75852728
-0.60351771
0.28584975
0.16800332
1.41851878
0.80114573
0.94453508
-0.89173526
0.74596334
-0.16604370
0.47121644
0.40364009
0.12468456
0.75302875
-0.74796677
-0.06678554
-0.78014290
0.11363285
1.12679231
0.05620915
1.36057389
0.44041932
-0.09377392
1.33832347
1.12261832
-0.59759641
-1.34432471
0.54108071
-0.40740222
-1.67590237
-0.57691145
0.72638118
0.26544744
0.26505655
0.67967230
1.36570942
-0.89670914
0.67797410
-0.36934742
0.09583747
-0.84090966
-0.46744654
1.61789966
-0.30905065
0.12248729
-0.32866144
0.95195001
-0.18768311
2.71839404
0.13370797
-0.82061303
0.75088680
-0.07965029
1.71664250
0.47154734
0.75598711
2.04630876
1.47727680
-0.47777262
-0.60055774
-0.16515578
0.64153814
0.09740812
-0.36323708
-0.03843663
0.32804650
2.08945942
1.23116970
-0.19989929
-2.10890269
-2.00613880
0.81961644
-1.31703830
-1.44829857
0.91905338
0.06090977
-0.36988106
1.03966510
-0.63768876
-0.79109222
1.25908172
0.93411183
-0.53848213
0.76822138
-0.51928788
1.23614216
-0.74809533
1.04760230
-2.02267432
-0.62490970
0.09682924
-0.97948796
-0.29479870
1.83910263
-1.32204068
0.07799271
-0.78546387
-1.11608708
-1.61465812
-2.37472630
0.69372040
-0.24126942
0.36199066
-0.57681102
-1.98731053
0.20961130
-1.14439952
-0.90579784
0.09439108
1.62272358
-1.66484129
1.64194453
-0.03435416
0.23341547
-0.35039511
-1.06224525
-0.92378515
0.09356052
0.45086986
0.49862972
-0.03423242
-0.06212082
0.13939720
-0.04428698
0.63165295
-0.80257750
-0.85781425
0.69879884
1.18923199
0.11546601
0.90291756
-0.92057109
0.64281577
-0.33266982
1.19193256
-1.04931605
-0.59859210
-0.97175503
1.03680193
-0.21781403
1.07725883
-0.65263706
-0.56400049
1.65713429
-0.32448152
0.62187517
-0.02625546
-0.94066715
-2.22657657
1.80467439
-0.89545631
0.43303326
0.34739044
0.12821037
-2.20430970
2.09639764
-0.88038361
-0.25524324
1.80468392
0.30776352
0.35047749
1.12533152
-0.61777681
-0.58677298
-0.40496069
1.35542512
-0.49672556
1.96731734
-0.24797969
0.77900308
-1.49396157
-0.48584741
-1.49341619
1.63663089
1.86317122
1.32781017
-0.90321720
-0.47615978
0.73130059
-0.84451830
-0.76272595
0.29404753
1.42786157
-0.51700324
-0.02673659
0.07655960
0.07286981
-0.45809656
-0.10909595
-0.15449117
-0.79631042
1.32883227
-0.82566446
1.04525554
0.07041527
-0.35397795
-0.85024959
-0.08923340
0.16776580
1.01241052
0.26040933
-0.06763956
-0.39087501
-0.99152863
-2.17757583
2.86881733
-0.03922032
0.15880632
-0.49141109
0.98113108
-0.15767068
-0.68982822
-1.37868345
0.95461297
-0.40497467
-0.33377281
1.50315893
-0.72598118
0.17905921
-1.08593619
1.30113995
-0.58213383
-0.31134912
0.24414577
2.19560695
-0.33867401
-0.04365207
-0.39059278
-0.10216171
-1.49651420
-0.06546428
-0.90800148
1.72900343
-0.24800213
0.61160421
0.41242558
0.60782266
0.21359964
-0.50953764
-0.54581481
0.35352233
0.25672090
-1.16120207
1.45587873
0.11469454
0.62170547
-0.07659809
-0.77333337
0.14641172
-0.78937465
-0.22930500
-0.58009481
-0.55192715
-0.23135483
0.43911147
-0.08946401
-1.58652842
-1.02483702
-0.08872806
1.29026735
0.58572292
-2.00571704
-0.56420135
-0.35498679
1.04495859
-0.57917869
-0.92454207
-2.51635432
-1.36089540
0.96032310
1.35664427
0.42116126
-0.06375080
-0.69438106
0.13766912
1.00464761
1.87030232
0.19103681
-1.16054106
-1.29191244
-0.56359792
-0.40853238
-1.73312926
-0.13189898
0.39020449
-0.43408698
0.57889509
-0.77519071
-1.66967344
1.16932929
-0.15612036
2.09256268
1.89325917
-0.56054187
0.33426657
-0.64819050
0.14924818
-1.17056203
1.18930733
0.49292725
2.43566203
-1.75379467
0.29547668
-0.37606773
-0.05334778
0.31043261
0.12323826
0.27839184
2.14521027
-1.73490191
-0.37080723
1.14450991
0.81993431
0.74665606
-0.36582610
0.80391312
-0.48284930
1.40130496
0.32037592
1.40493834
0.14349720
0.85123551
-1.90433872
-0.44561461
-0.10321524
1.50628841
-0.68139088
-0.65170097
-0.89326227
0.33562991
0.63366717
0.39514017
-2.48101783
-1.70677614
-0.49548426
-1.02993858
-0.91603595
0.27569649
1.15754974
0.52817374
1.57530773
-1.08595812
-0.46687949
-0.35593987
-0.38777813
1.67729926
-0.26228312
0.45124766
-0.84072965
-0.15655798
-0.37595293
-0.26268065
-0.44472268
-0.60218972
0.12210016
0.22263506
0.59132290
-0.34701973
-0.30404922
1.02096212
0.39240995
-1.76243997
-1.86186707
-1.25398743
1.38342547
-1.21805036
1.81066489
-0.65854973
-0.89963496
1.19593179
0.37336129
0.45764983
-0.53149492
-0.90992767
-0.34195873
0.63834989
-0.01460899
0.85106188
0.44439471
-0.98626083
-0.42608571
-0.39044860
0.29972371
-0.63468075
0.94265354
2.21488833
0.13288520
-0.39380080
-0.38133243
-0.41957790
-0.30242050
-0.26190782
-0.44320983
0.91121489
-1.94573820
-0.23954016
1.91294968
0.13754342
0.24044544
1.10248435
-1.04007137
-0.99443579
-1.94885492
-0.52613384
1.11764848
-0.78750062
0.57401145
-0.67280084
0.27375513
-1.45515490
0.90513980
-0.10799120
0.65438634
-0.88953173
0.34017259
1.48194849
-0.67228341
-0.11560739
-0.24460000
-0.45233247
1.12923551
-1.97364163
-0.64024693
0.47292611
-0.69960994
-1.33196032
-1.07513237
-0.31173372
1.38907969
0.09221633
-1.25724709
0.26036322
0.95018309
0.59286195
-0.08322155
-0.16136798
-1.22752607
0.17060447
0.03494618
-0.17912836
2.49822378
0.50110137
-0.36282113
1.07363737
1.07135403
0.82199210
0.70888305
-0.13470928
1.52274215
-1.29773772
0.35110611
1.76127338
-0.02317193
-0.47597554
-1.13955045
0.60969585
0.65933472
-0.28127918
-0.28722402
1.07787418
-0.52448541
1.02219498
0.05655016
-0.66983742
-0.51745635
-0.70502013
1.50594592
2.29167056
-0.14969423
-0.69297069
-1.87717164
0.30477011
1.83371234
-1.45876658
0.86359441
-0.25290614
0.66634047
0.70956063
0.16301678
0.27382344
-1.10916173
-0.22319950
-2.14766455
0.27642277
0.21164872
-1.53068554
1.12849116
0.52234656
0.89181721
-0.78992188
-1.13234246
0.83111215
-0.31904987
2.72187281
-0.75540274
2.22452021
1.41714311
0.70921469
-2.08845782
0.13614172
-1.10745192
-0.20476831
-1.11274624
2.16917133
2.19644451
-0.23349606
0.96514875
1.17897093
0.80605370
1.36010504
-0.62616044
-0.40056103
2.24232054
0.07105365
0.22861065
0.50557894
-0.92817521
-0.13722980
0.35005209
-0.65700567
1.45848262
-0.06750672
-0.86759877
0.23299901
1.32691550
1.55050206
1.05480921
-0.45519519
0.45766231
1.84024131
0.01466302
0.49995017
0.83656132
1.66284418
0.27519140
0.54233938
-0.83051217
-0.48821139
0.48154089
-0.42144775
-1.61929691
0.01893355
0.54796946
1.09000957
-0.15558772
0.50616026
0.37230924
-0.03727715
0.11046439
1.36432815
-0.65068626
-0.38938850
-0.45129302
-2.26695251
-1.06314099
0.21456534
-1.81397724
0.69111651
0.83967525
-1.66799152
-0.47205633
-0.84080416
-1.19047701
0.35199437
1.39163518
1.29728079
1.17570651
-0.72643590
1.65621734
0.64178950
-0.12101571
0.68095005
0.11728576
-1.28826106
-0.29374325
-0.78475744
-0.64556772
0.73810869
-0.78252816
0.81108069
-0.19820955
0.33512840
1.53745925
1.84095812
-0.04766166
0.88068002
-0.90237081
-0.63343561
-0.16221827
-1.05570102
-0.00894038
-0.28593525
0.42013586
0.14219904
-0.34913176
-1.89562261
2.24518442
1.51949656
-0.93892890
0.95989382
0.27275440
-0.63547564
0.09888175
0.52703458
-2.09254932
-0.57655758
0.98290616
0.74538636
-0.06869843
1.01128280
-0.31525797
1.02792740
-0.07017627
-1.06964827
0.47687709
-1.40866017
0.71622401
-0.85315043
1.04769349
0.64150620
0.89591557
0.05144179
1.57342541
-0.94217932
-0.95693469
1.13333750
0.06157022
1.71537006
-0.58877021
0.18444629
-0.55480200
-1.48404288
-0.10732757
1.94412410
-1.09503937
0.28133726
1.29768932
0.07219783
0.10933217
1.51490426
-0.52230597
1.09107840
0.77755547
-0.00750656
-1.59988701
0.90842557
0.21703912
2.52131414
-0.32380623
0.13540624
-0.07182106
0.51772463
-0.72806597
-0.76175183
0.90954953
0.58401412
-0.38038424
0.70798010
1.14648259
0.12164149
-0.33868840
-0.22070505
0.08551917
-0.00006705
-0.76478869
2.43687201
0.77166766
-1.08263850
-0.15046278
-0.90737140
0.07181365
0.93935204
-0.04499282
-2.31261444
-0.56095964
0.12701192
-1.24137259
0.01974692
-1.39783680
-0.12395302
-0.41937515
-0.02698680
0.19097507
0.45105672
0.76546592
-0.84507668
-0.24225102
-2.72393751
-0.93569392
1.26305079
1.78556013
-0.85031116
-0.56053245
0.11727414
-0.34860983
-0.22046812
1.83909166
0.87615681
-1.23311758
0.30195406
-0.16743930
-0.46461269
-1.31379795
0.78744274
0.50944436
-0.91701627
0.19868137
-1.40487289
0.77006322
0.50653857
0.18901704
0.69721675
0.32328424
1.44812608
1.17162931
-0.72221911
0.88483673
-0.70731550
-1.09036458
0.56294823
-0.39389706
0.39916736
-0.36696199
1.26633358
0.39310676
1.18268204
-0.62916404
0.36762366
0.46797842
-1.26711905
0.40778768
0.19925591
-0.74693727
-0.58401871
0.46196747
1.68551564
1.05937636
0.25409952
0.99806607
-0.23614298
0.13905542
-1.48640513
0.93009323
1.04008639
0.19406551
-0.58056897
0.34359315
-0.60912454
-1.82329643
1.29974091
-1.32750309
-1.36633790
-0.72989559
-0.40365890
-0.31820783
0.44916287
-0.10639586
-1.40754747
-0.03575235
0.35595793
0.59867048
-0.65935230
1.77546346
2.15278673
-0.16455483
0.38702285
-0.81456572
-0.19321552
-1.18068397
0.27718979
-0.05055998
-1.09064496
0.11448101
1.57630682
0.08390956
0.58530402
0.01882285
-1.08155870
0.52511936
-0.51608032
0.68931037
-0.20676741
1.20750654
0.82665199
1.14590597
-1.08739507
0.99625254
-1.46275651
1.70194387
0.92175514
-0.52660781
0.69988656
-1.06136823
-0.72276604
1.03735781
0.50092053
-0.38692456
-1.51434553
-0.82203323
0.30211866
-0.82028306
-0.74426138
-0.08304774
0.93152076
-2.15089822
-2.02043223
-2.24944949
0.24015294
0.61339724
-0.97146744
0.73918843
0.61705971
-1.40129769
0.42022526
-0.22910196
-0.30095145
-0.99536431
-0.81150287
-0.55846232
0.71703029
-0.15225825
-0.81895357
0.18406227
-0.65101236
-0.12182552
-0.49237707
-0.25420010
-1.21950781
-0.08554199
-1.54698944
-0.33773115
-0.51566434
-0.45982671
-0.02757833
-2.06971097
1.16293025
-2.03444052
2.11589599
-0.15812989
-0.13108060
-0.23670024
-1.10701907
1.32758296
0.53259104
2.09270859
0.72519666
-0.85379934
-0.77927196
0.38579720
0.14454663
1.32502913
-1.15122283
1.11912906
0.52873743
-0.14367427
0.36438218
-1.07613468
-0.37390327
0.17428327
-1.23276412
1.52498364
-1.78539824
1.39716506
-0.38945001
0.90279531
2.18347716
1.49875247
0.36548460
0.84309912
0.76549691
0.28165495
-2.20139599
0.20736496
-1.48925543
1.39230323
0.59433913
-0.52074879
-0.33953631
0.32278597
-0.68372780
-0.53239751
1.30303335
-0.51754856
1.51380241
-1.03349257
1.05851781
0.22436678
0.09495682
1.36479139
0.49871558
-0.16955951
0.60068375
0.52190405
1.99714708
0.29938257
-0.64295769
-0.31438023
-1.59193408
0.61244661
0.10809666
-0.21972701
1.04227722
-0.49897227
0.12267917
-0.57222050
-1.78169572
-0.70469725
-0.49685997
1.20752907
0.80349642
-0.23995784
1.56695545
-0.43251631
-1.94572079
1.68811667
-1.13728881
-0.16304277
-1.90066051
0.71695215
-0.26441681
0.80142844
0.36489069
-0.27638283
-1.02529407
1.20259178
-0.40575150
0.57334864
0.20404077
0.57929826
0.06696176
-0.67762715
0.21494487
-0.15558879
-1.21090603
0.14448228
-0.96739864
0.11912774
-0.97136545
0.09239091
-0.32230762
1.91735840
0.55178583
0.18431409
-0.32697341
-0.62622476
0.03409331
-0.45355535
-2.06885958
0.90448338
-0.79740965
-0.14598110
-0.19674294
0.19083150
0.89679378
-0.75505358
0.02607998
-0.74797249
1.87778997
0.69266725
0.36515129
1.50234175
-0.69996864
2.00648403
2.27897382
-1.39346015
-0.51957637
0.91562468
-0.20967706
0.13958840
1.75395465
1.47563338
-1.13398516
-1.03923905
0.21661945
-0.16536584
1.62276196
0.21329141
-1.55610371
-1.27304447
-1.17522037
2.01488471
-1.77110124
1.83956194
-1.11194980
0.00038237
-0.22548625
1.71022666
1.03087676
0.85266846
-0.70689422
0.51715189
-0.74479789
0.85310739
1.31482470
1.11624539
-0.17318253
1.59597301
0.17949432
-0.73828924
-1.98540115
1.37045228
1.10935795
1.60606503
0.74222606
0.69679719
-0.37636438
1.94014513
-0.45736128
-0.03299841
1.76142704
-0.06067110
1.51140237
1.55449688
1.71233892
-0.89794934
0.24177839
-0.53531110
-0.96698058
-0.75842887
-0.60836416
-0.25799698
0.63708717
-0.36519551
1.03679478
1.04303718
0.60374796
-0.86798120
-0.70727539
-0.01277563
-0.05278504
-0.28295714
1.46596539
-0.14600118
-0.33168891
1.09382749
0.76375556
-0.30524305
0.34064049
-1.40847576
0.73960292
-1.47330606
0.82011211
1.51154995
-0.22188073
-0.05501592
0.38923773
1.84659147
0.15306421
-0.20750506
0.36733201
0.25656945
0.30844420
0.94278979
0.38226333
0.20487393
-0.85570407
0.09286044
1.95502758
-0.46583736
-0.91263139
-1.25891340
-0.37318298
1.29598320
0.35908067
-0.21838970
0.81214565
0.44405079
-0.74829435
-0.96101874
-1.13162255
0.71619308
1.50679326
1.57645214
-1.02343857
-1.44537473
0.47464526
0.25752887
0.41222665
0.52039331
0.26079005
1.72613215
0.47533849
-0.92594671
-1.24617159
-1.39686549
-0.06649259
0.22273099
-1.06541014
1.07315338
-0.96074027
1.47809112
-1.10794270
1.78972042
-0.19234313
0.09870180
0.96113163
-0.60816675
0.18477793
0.04083015
-1.27060223
-0.03414593
0.54113781
0.27528784
-1.45186329
1.92847896
1.53331387
-0.38771155
1.52710462
0.93525350
-0.56020278
-0.20485830
-0.63918072
-0.56829333
0.84210813
1.18725669
-0.53531599
1.18071949
-1.58957827
-0.64996219
0.72110295
1.11524761
-0.52517831
0.41171420
-0.31870535
0.01637152
-1.24177527
-1.29910254
0.47558415
0.71961749
-2.49102926
-1.29624081
-1.52225864
-1.21828496
0.02652357
-1.36861467
-0.93057698
0.25424406
-0.46714467
1.59897339
0.23747955
-0.02267967
0.55304378
-1.59583390
-0.45415387
-1.36468768
-1.85522556
-0.47518331
-0.13863209
1.79254675
-0.22410072
0.52801424
2.00422525
-0.46219739
-0.35194382
0.50833434
0.78450674
-0.09196579
-0.01170288
-1.48289835
0.59354031
-0.91144478
-2.41955090
2.60026860
0.92827153
-1.42400503
-1.15484047
0.75282371
1.12844670
-0.50931817
0.20466198
-0.95042926
0.11994237
1.57748282
-1.19532764
-0.35683659
-0.80508035
1.04842257
-1.07093859
-0.03761266
0.34365389
-0.83581477
-0.30849412
-1.17250097
-0.11187507
-1.27875638
-0.58119935
0.20879318
0.65575898
-0.19556387
0.48743930
1.11816525
-0.64575529
-0.59194076
1.39681971
-0.61532140
-1.67745578
-1.00665188
1.92982876
0.90636587
-1.30163884
-2.15239406
0.75435662
-0.28203961
0.35239378
-0.33964032
-2.01438975
0.70915353
-0.09026999
-1.10783947
-1.96006286
-0.34553760
0.29920644
-0.12807815
0.17945054
-0.14667049
-1.24550462
0.39528605
-0.12479311
1.19692087
-0.96664733
0.47886857
-0.02658143
-0.06691313
-0.69205672
0.18746032
0.41497022
-0.91512305
-1.70648015
-1.94207561
-0.22195382
-0.75048494
0.76832145
0.22753330
0.98928112
0.54425347
-0.98760688
-2.04615784
-0.50474572
0.09518372
1.43482232
-1.25732994
-0.71662730
0.73089284
-0.02174550
0.85775816
-1.16893995
-0.69553792
-0.42612609
0.39531803
0.35653684
-0.02987609
0.08232484
-0.80174065
1.42304325
-0.06213267
-0.76027966
-0.45127153
-0.64025551
-0.87619579
-1.09989953
0.60105371
1.57436955
-1.14464200
1.67245579
0.45743099
0.28149441
0.95964146
0.61633003
1.75590444
-0.02271438
-0.08051565
0.28520975
0.54314578
-0.42987007
0.85123146
-0.29398581
-0.01724329
-0.70643979
0.34581470
0.71544576
-0.07637516
1.52992737
-0.35815004
-1.15552187
0.66918188
-0.56602293
-0.77654862
-0.05868145
-1.60892820
0.73783296
0.30959767
-0.16530977
-1.30403817
-0.22650248
0.40934852
0.49629205
-1.25953269
-1.39027250
-1.59362936
-1.79355133
-0.96530092
-0.92580712
-0.73183411
2.76303720
0.64904940
0.38360494
-0.56889546
0.51751220
0.10896442
-0.14108053
0.10746361
0.10189256
-0.85746312
1.43866873
-1.16019273
2.07867098
-0.01501439
0.72711951
-0.58444512
-0.23855290
-0.23779717
-0.03153345
-0.79321122
0.86531258
-0.41053653
0.20821616
-0.24880178
-0.67417914
-0.43673635
-0.87854254
1.56376839
0.28494102
3.20892572
-0.04051030
-0.17571723
-0.73061007
-1.25052238
-0.79044181
-1.18073273
1.79101038
0.35414144
0.18516985
-1.47283411
1.90964162
-0.41066471
0.39443469
-0.40209964
0.69514358
1.47690201
-0.66724247
-1.88323045
2.29145551
-0.35773224
1.31693065
-0.15559435
0.76774961
-0.29474410
-1.27794492
-0.37458277
-0.59463060
0.50603479
0.01897513
-0.84560686
-0.70677972
1.76675820
0.36711699
0.11712900
-0.52423364
-1.21691716
1.72267461
-0.38002771
-0.64841586
0.62253243
0.39419183
0.16441247
-0.99457604
0.02080898
0.19671839
-0.12660891
0.11136389
-1.34732056
0.22757651
0.31079793
-1.38844633
-0.35239032
1.04319906
-0.25994709
0.18108959
0.92079562
1.31559849
0.74793756
0.31939030
-0.29738563
-1.50393808
-0.63549435
0.62006104
1.03128254
0.04184206
-0.17690666
0.69600099
-0.15225479
0.93785143
-0.01281082
0.82507873
0.62962437
-1.86126339
0.60127860
0.55884928
0.71637011
-1.68304586
0.98589289
1.10838473
-0.11982889
-2.17910337
1.08605659
2.23861647
-0.65078712
-1.20215404
0.57647198
0.86685836
-0.54831368
-0.26868320
-0.71131724
-1.25181830
-1.69639826
0.03549113
1.00904822
-2.20098042
-0.83940667
-0.61540753
-0.73150027
0.64165682
-0.96008295
-0.58063018
0.15139453
-0.36595950
-1.05961037
-1.17063606
-0.05831397
-1.30664408
-0.24533193
0.60662180
-1.27904701
0.01892163
-0.34702039
0.59413296
0.65121353
-0.13362828
1.19299173
-0.28702766
-0.29513773
-1.66171765
-0.43529391
-1.51358521
-0.53645140
-0.95839000
-0.08847955
-0.07127694
0.41481704
-0.69536203
-0.92963481
0.50647438
0.01935925
0.10861234
-0.68927372
-1.47981906
-0.42421076
0.07694070
-0.62681991
-1.07980907
-0.40541980
-1.17893064
-1.02162778
-0.18561287
0.28876245
0.08790892
-0.05177143
1.40564072
-0.05635618
-1.34750628
-0.77118886
0.04605744
-0.10468059
-0.07337178
1.26469886
1.36800456
0.21305245
-0.47370481
0.56250840
1.04401231
0.24836169
0.97385454
0.19564287
-0.37232053
0.20703565
1.44757450
0.18082289
-0.43922380
0.53025746
-0.06479108
-0.61621016
-0.96730834
-1.72684216
0.69799066
-1.07292438
1.24492753
0.42267707
1.46042240
-1.12469435
-1.03339481
-0.63574505
0.56519544
0.30255631
0.83891571
0.40292090
-0.33252311
-0.63095689
-0.77715063
-0.70221323
0.68718427
1.59406281
-0.61434352
-1.63239086
-1.12070787
0.01299423
-0.59369129
-1.05519903
-0.19298446
1.35812771
-0.64513606
0.12107986
-0.26257810
0.27888528
0.85911071
0.64680195
1.54638922
-0.74440324
0.21426331
0.92462790
-0.09008513
-0.38634518
0.73777527
-1.03455269
0.49740502
0.55916339
-2.32073498
0.97130001
0.39485979
1.01249301
-0.99402624
0.31708518
-1.06950498
0.03934465
0.70863503
0.60643971
-0.06951650
-0.80978018
1.75551081
-0.29080999
0.25269416
-1.21742499
-1.13852501
0.88194227
-0.04028536
-0.30957398
-1.26700842
1.51500368
-1.21712244
-0.12251576
-0.82093006
0.50329912
0.66092426
-1.36823559
-1.60290039
0.72963637
1.10218298
-0.48969987
-1.49651575
0.95537263
-0.16307099
0.20936127
0.53674877
0.14482741
-0.36117229
-1.32434130
-0.62851775
-0.08014200
0.02070884
-0.79812253
0.26045126
0.28854308
-1.11955047
-1.19538558
0.35219288
0.94037211
-0.47219142
2.22128081
0.55828553
1.50619733
2.15489364
-1.14352632
0.21540861
-1.31797934
-0.23210746
-0.75629014
-0.77379686
0.35451576
-0.46318230
0.19755077
1.74155307
-0.50802588
-0.72984463
-0.77574229
-0.14388379
-0.15003565
-0.72801852
-0.51500279
0.47264826
-0.32909915
-0.53402668
0.64619774
-0.81262636
0.36190549
1.60913897
-0.97036171
1.04975581
0.25835612
-0.76791477
-0.07553128
1.94470549
-0.58036536
0.03951973
-0.41003636
-0.20894925
0.69004059
-1.32546020
0.24684742
1.98420906
-0.77323115
-0.08540008
-1.58834243
-1.67469919
0.31035730
-0.67040747
-0.65950382
-0.63785821
0.14562123
0.39048213
0.35921493
0.22332221
1.84521973
0.83174342
1.22788584
1.86002493
-0.40775365
0.46597406
-0.80781937
-0.10450502
-0.40985414
0.17724715
0.06144994
-1.14320159
0.22354099
1.85406005
2.29508591
0.55332643
0.90018696
-0.45491701
-2.03181767
-0.09993788
-0.49471900
-0.13975489
-0.50629044
-1.05839527
0.34485534
0.20364591
0.46395630
-0.00628233
1.24436879
0.19680624
1.48191190
0.15670075
-0.40728238
1.21063268
1.14996874
-0.36529019
-1.01718676
0.59713787
0.57232189
1.09101737
-1.90069640
-0.35611826
0.89339799
0.32690567
0.89570415
0.77442592
-0.00864972
0.05935293
-0.27486655
-0.82447022
-0.78303802
-0.11339532
0.63625109
2.88168788
0.73656946
-0.84783834
0.52788490
-0.36338806
-0.74831426
-0.74628031
-0.01957226
0.75196010
0.61805725
-0.22774984
-1.02673459
0.09373333
-1.50801659
-1.11481130
0.78843302
1.34959745
-0.44650581
-0.11256237
-0.91796666
0.19275007
0.98750055
0.17238748
-0.58577311
-1.27424896
0.38494024
2.11989069
-0.01182903
0.21492974
-0.28348634
-0.60410434
0.48264864
-0.43754923
0.55434209
0.40564007
-2.72718406
-0.44678870
-2.13720989
0.64531589
0.36620119
-1.04141629
-0.73507607
0.76377612
1.17112291
0.30971172
-1.58837235
-1.21082425
0.56832057
0.58846933
-1.48011076
0.64467889
-0.75928462
0.08321217
-1.86620224
-0.38668397
-0.46670163
1.91655779
0.41519588
0.64111221
2.41945553
-0.00070530
0.61843914
0.70167071
0.78681135
1.41479123
0.46451968
0.33507702
0.00136257
-0.17674190
2.72092485
1.03467047
0.50904608
0.70413274
-2.55005717
1.22062075
-0.27433318
-0.51438653
-0.07891020
1.18775892
-0.80737805
1.14107239
1.34868121
0.63622940
-0.71952736
-0.82685345
-2.00209951
-1.06952274
-1.08562267
-0.12722979
-0.60391939
-1.12928832
0.99301696
-0.97949851
1.78098440
0.36481228
1.29895055
1.10054362
0.43011567
0.58271986
1.73725200
-0.43848008
1.50822198
-0.77875537
0.97103387
-0.47208354
1.56322849
-0.39221007
0.93964279
-0.32263950
0.12773597
0.45071495
0.81204230
0.02515114
0.26698491
0.37345648
-0.15532008
-1.09870982
0.36058927
1.05834925
-2.00962949
1.32429278
-0.02446174
1.88441563
0.48790327
-0.96098298
1.00977910
2.31937122
0.09604712
0.28869182
-0.27450031
0.10120322
-0.14985870
0.84787506
0.74622571
0.24651214
1.07569087
-0.62815827
-0.09948145
0.00218150
-1.17310035
0.72582853
0.19124915
2.05805731
-1.65389335
-2.90579438
0.32684007
0.66441417
-1.17206502
-1.37845933
0.72813594
-0.52648550
-2.44126201
-0.65039402
-0.26129165
0.17067890
-0.85045642
-0.14269026
0.88843948
-0.04724681
1.04586947
0.88816875
-0.06560178
1.19318986
-0.06989523
1.40943241
-0.73366207
0.39162818
0.06876657
0.48521850
-0.45751697
-0.60868776
1.59638369
-0.50400001
0.17811500
-0.16849524
-0.70985472
0.41806436
-0.65726179
-0.23635454
0.03925327
0.54939747
0.33223927
1.67953670
0.26328614
-0.40566880
-0.68782717
0.13754928
-0.53116971
0.59000391
-0.63728774
0.43039736
0.12943329
0.61946929
-0.46888405
-1.50681365
-0.93351012
1.99165463
0.16709279
0.04472199
0.18925668
-0.94000101
0.81734890
-0.63880366
-1.92085278
-1.35858524
0.11582520
1.22003400
-0.65689981
-0.80303705
1.84168541
1.03426790
1.24964571
-1.92374325
1.29585958
0.01420121
0.22246169
-1.12178636
-0.50160879
0.23201755
0.23995736
0.59532344
1.34728456
0.57589275
0.91498649
-1.16493440
-0.85342574
-1.27503216
-0.03934704
0.14495596
-1.99050283
0.42069048
-0.29298869
0.71899819
1.55348206
0.64291602
-0.50666338
0.47048688
-1.31553090
-1.50924885
-0.30519789
0.11570088
0.68800831
0.05768208
0.34057847
-1.08321965
1.35102940
-0.84338546
-0.52852172
0.34160861
-1.28312242
-0.84739614
-0.11126214
-0.42684901
-1.33334911
-0.15405564
0.00770970
-1.31026769
1.03179312
0.83008474
-0.06416395
0.28563392
1.52775574
0.85627317
-0.75475770
0.67008263
0.31471568
0.57343006
0.85634691
0.72897375
-0.31456861
-0.55309105
-0.44201404
-1.59565210
0.17566751
0.09440961
0.61937237
-0.06533518
-0.69526184
0.89628416
1.40686858
-0.43009681
-2.37939072
-1.00416017
-0.42111063
-0.30533311
1.29778826
2.38571334
-1.34837985
0.51641804
1.43469906
0.15024492
-0.42175263
-0.50797808
-0.50578701
-1.21910274
0.59283686
-0.97646129
1.53648531
-0.41251516
-1.33505201
0.48850611
0.96916866
0.46057341
-0.09654153
1.86452973
-0.66701192
-0.28064838
-1.53773189
-0.96180892
-1.42214680
-0.97672176
1.17919302
-0.36668712
-1.30675602
-1.14232516
0.85158187
1.01980865
-0.91536176
-1.07704055
-0.65891469
1.02250302
0.72191352
-0.62173611
-0.19154352
1.73404050
-0.92365038
-0.25914139
0.51174825
-0.01135357
-0.89213413
0.35481325
1.15785325
0.88163161
0.82530075
0.81866634
0.27591145
-1.26599133
0.38467306
-0.24725746
-0.48239422
-1.12811518
-0.47931919
-0.43270680
2.02501369
-0.20679581
0.09136651
0.95080054
1.13144147
0.43673769
-0.52638012
0.30569577
-0.48575518
-0.80903041
-0.10365411
0.86841011
-0.49248201
1.51288903
-1.03042340
-0.89063597
0.35840553
0.13234119
-0.09103939
-1.13091552
0.40925577
1.35751045
-1.13327491
1.87937379
0.68246377
1.45383263
0.39833713
0.33098745
0.72373754
-0.62922817
-0.10711060
-0.35082248
0.59647489
2.05597544
0.46827823
1.22415674
-1.40425277
0.76815724
-1.99153662
0.13851544
-1.02699327
-0.64264971
-1.69633937
0.19165102
2.04338050
-0.26241887
-0.22257739
-0.61838847
-0.31078035
1.13929963
0.12405574
0.57781082
-0.45586300
1.01575816
-0.39800507
0.54193389
0.88602442
0.62852865
0.64750797
-2.20247960
0.15053701
-2.11012912
0.01284276
-0.12544401
0.24931411
0.16480505
1.27941215
-1.71418750
0.73480785
-1.04126751
-0.68409759
0.36369231
0.54768318
-0.93720353
0.82430142
-0.10377416
-0.08519523
-0.51982450
0.12785070
-0.07988044
-0.19592535
1.88197148
1.03270805
-0.78539348
1.01119220
-0.22924361
-0.68027586
0.34543779
-0.02277562
-0.79275966
0.55478197
2.91890001
-0.11224534
0.37510186
-0.16328815
-0.46727684
-0.22961549
1.12739468
-0.04159245
-0.59531748
0.45874155
-0.11236715
0.48194957
0.13985170
-0.63615847
-0.12230767
-0.54442692
0.50653744
1.39969850
-0.00895563
-1.09718096
-0.08748111
0.94403917
0.48708797
-1.08347976
-0.89988220
-2.91617727
1.10661864
0.64734513
-0.88940591
0.61016810
-0.85192811
-2.00948501
1.12757421
-0.22298525
-0.57801014
0.44434506
0.09927487
1.51359677
-0.93283123
-0.89957523
2.73741651
-1.52087688
1.44037700
1.53011954
0.10238100
-0.88297474
1.94890165
0.80864394
-1.47069788
0.32539469
-1.03056324
0.25231877
-0.70563340
2.16752291
0.41194609
-0.46451324
-0.10508419
-0.91549683
1.20024848
-1.28961802
0.07416224
-0.46213219
0.06942783
0.06635300
-1.04194605
1.83786333
0.05385373
0.46097037
1.15363479
-0.52245194
0.20416752
-1.31433547
-0.55426514
-2.12763786
0.08543073
0.82520336
0.60677701
0.42250624
2.50873804
-0.01259058
-2.16017890
-1.07425869
0.43017265
-1.11789858
-0.38501456
0.77871609
-1.36563230
0.54442698
-0.41503009
-0.44650239
-1.58202946
-0.55245119
-0.46998173
1.50376225
0.05761156
1.16483891
0.53681690
0.91988903
-0.44302732
0.69338459
1.22341537
-0.27920234
0.81107527
-1.29374731
-1.21256721
0.79500651
-1.56573987
0.98158729
1.30667734
1.58417273
0.07825209
-1.32331145
-0.17266203
3.47771931
-0.55408460
0.72768229
0.18606324
0.60698926
-3.40441394
0.45463154
-0.49454394
0.34422079
0.68337899
0.15612394
-0.45309860
-0.91078645
0.08381801
0.68329310
0.21770114
0.49460229
0.58704674
-0.84327257
-0.10731303
0.09164805
0.62157774
2.11663771
-0.47001517
-0.77733833
0.96625900
-0.70086831
0.32073945
1.52823842
-0.30718502
-0.76017100
1.64086282
-0.15117815
-1.82038271
0.16230437
1.67158067
-0.09995174
1.33012807
1.44411182
0.59287256
1.07579648
-0.68057311
0.98534477
-0.41121569
0.54019475
-0.33027092
0.76123518
-0.70386320
-1.92131293
-0.33881152
-0.33371243
-0.64779669
-0.09284012
0.55030030
-0.34404007
-1.23384905
0.57698035
-0.17976069
0.22059584
-2.81954885
0.84626162
-1.47558546
-0.81823075
0.34502000
0.87377685
-0.17624265
1.60277975
0.58953226
1.19845140
0.12968983
-0.27217922
0.24309048
0.83305454
-0.21386358
0.22745492
1.53123045
1.65598261
-0.21428020
-0.36858016
1.06693304
1.41111410
-1.60126066
0.41229814
1.32633483
0.27660400
0.77427417
-0.63968635
1.96136928
-0.51933378
0.69222152
0.73882258
0.20811534
-0.33684775
1.48274148
-0.37247998
-0.33375522
1.03212619
-0.27068371
-1.06086087
0.51346713
-0.40254626
-0.57708961
0.32267454
-2.14057994
1.12348855
-0.22889905
-1.02064216
0.29502031
-1.34835601
-1.85973144
-2.04303288
0.67536467
-1.46601462
0.64867836
0.54182458
0.94975090
-0.62466478
1.98536646
0.99176729
0.28020179
-1.90506113
1.40721810
0.37537733
0.89348972
-0.18739429
-1.38215554
-1.38112462
1.62902761
-0.16946429
-1.89834702
0.84640175
-1.60388517
-0.82169360
-0.80799353
-0.63411999
0.16087759
1.14116681
-1.43921399
0.19704862
0.00422842
0.94044995
1.31995559
-1.98335290
-0.88224655
-0.04509912
0.51238614
0.49337420
1.53288710
-0.20373158
0.00232716
-1.04546869
1.14242053
-1.38345218
1.50166678
-0.03721596
-0.74361962
-0.09583937
-0.56100947
1.18029785
0.42635989
0.33419260
0.55751503
-0.30726457
0.74675661
-1.24669445
0.62728792
0.99658406
-0.37748542
1.52027190
-1.38029718
0.66248500
2.28259158
0.38958374
0.11262225
-0.00736341
1.05108202
-0.95974702
-1.47517383
0.25660720
0.22934626
0.33662900
-0.08478033
1.43016183
-0.38559732
0.69684339
1.04367924
-0.17226851
0.99422950
-1.76710343
-0.04929845
-0.37609366
-1.16419196
-0.61840498
0.04505090
0.29066083
0.65772462
-1.16457796
1.75326562
-1.61260796
0.05496435
0.62395769
-0.22037061
-0.69867486
0.25761071
-0.96059120
-0.43674216
0.95761228
0.18083231
1.10912824
0.39476898
0.08917937
-0.44164693
2.28759265
-1.07151628
0.55640149
-0.21381280
-1.66828811
0.85532695
-2.33306813
1.29082429
-0.62563765
1.27497494
0.06040944
-0.64178580
0.00285699
-0.35936800
-0.82486999
0.53017586
0.38972747
0.58991897
-0.74446040
0.46741623
0.83394670
-0.23713133
-0.28913534
-1.15500784
-1.47801149
-0.36152402
-1.19213259
0.62365890
-0.18632062
1.18261325
1.90585995
1.28714883
-0.59966385
0.04122258
-0.65363365
-0.23561011
0.78743070
-1.56789994
-0.87533301
-1.60769248
0.00619596
0.62664723
-0.10089170
-2.34207225
-0.03693506
1.15081549
1.29219568
-0.79661214
-0.71081328
-0.05096275
0.76008058
0.15918019
-0.09600484
0.47761124
0.45512405
-1.96240246
-0.03313543
0.34740758
0.48758525
0.34198499
-0.16676530
-0.09126823
-1.29176617
-0.66988808
-0.00218655
1.28649974
-0.96735096
-0.20055483
1.39845932
-0.46582326
-0.84281290
1.94022894
0.11151990
0.16583651
0.67881823
0.82728881
-0.72349322
-0.70900089
-1.21035123
-1.13363397
-1.44524360
-0.34155479
-0.76299220
-0.59971082
-0.74148017
-0.09115273
-1.07885885
-1.00978529
-0.38018206
-0.43725887
-1.16641593
0.99810362
-0.46060178
0.36578733
-0.01632572
-0.45826876
-0.98384660
-0.27719879
-0.34148490
-0.51528156
0.42844045
-0.05805898
0.29851589
0.64964873
0.12833767
0.97607094
-1.51041651
0.30134431
0.52079225
-0.79629052
0.95707470
2.14132905
2.12238860
-1.60409904
-0.28419438
-0.14646132
1.90928710
-0.29368782
0.25862947
0.90421170
-0.31190923
-1.38635707
-0.81412208
0.48977414
-1.57036781
-2.29987001
0.12807758
1.41848636
0.86088884
-0.86118996
-1.69044876
-1.46003580
0.81344002
-0.41042480
-2.79563141
-0.91054899
0.33483264
0.16340414
-0.51185757
-0.32773557
0.98705328
-0.34885430
1.80700696
-1.89803195
1.14402759
-0.00260716
1.39561307
0.95310736
0.34363431
0.56344825
0.92319119
1.41535068
1.00279129
-1.94847155
0.16622885
0.51732314
-0.58621192
1.40104556
0.16600727
-1.40654790
-0.41031337
0.94552720
-1.17033577
0.60053498
-1.18737257
0.91041976
-0.39049849
0.31856564
-1.17465472
0.26387119
0.26245990
-0.81543469
-1.88499463
0.93954235
0.49199006
0.56516290
0.59943444
0.73530197
-0.92506421
0.46264887
0.11306378
1.00084305
0.53680933
-0.79648131
0.29013965
-1.11952877
-1.62472665
0.11684617
-2.26016378
0.76370698
-0.21167716
-1.04070199
-0.39573625
1.40236211
-0.40008909
1.44112837
-1.42189324
0.76173145
-0.25524855
-1.47811651
-0.08700975
-0.29044536
0.96461248
-0.76868409
0.86963660
-0.41063112
0.39243731
0.68181533
-0.63207734
0.94446325
1.91249561
0.37733731
-0.52230942
-1.38775253
-0.09183652
0.61710477
-1.26736033
-0.26091751
1.54988873
0.47996667
0.61610204
-0.95491177
-0.40516725
-0.46930391
0.75791419
-0.82748765
-0.34714955
0.19079128
-1.72105885
-1.87341332
-1.90565467
-0.56012356
-1.68683326
-1.06794405
-0.35833830
-0.79058599
1.06938577
-1.00606763
-0.91934592
-0.40635926
0.90549588
-0.38731000
-0.42186204
0.72463542
0.52492344
0.54558820
0.86530030
-0.19156337
-0.61082166
-0.34340543
0.67595911
0.34661171
-0.79592389
1.01843369
-0.77816993
-0.85642594
-0.76677620
1.18195689
-0.95474356
-0.21957462
0.40827978
-1.38781333
-0.92461395
0.43376747
-0.25983277
-1.39333487
-0.24874632
-0.34248090
-1.11471915
-0.13301151
-0.75123161
-0.46846056
-2.63359880
-0.06798811
-0.41035795
-0.39546272
-0.24881130
-1.00196230
0.58667833
-1.80660677
-1.29880536
-1.34405982
0.56465906
-1.02657712
-0.88845283
-0.36881885
0.28237203
-2.04701376
-0.98108655
-0.67782849
0.42547148
0.18274462
1.02879465
-0.41080114
0.76049924
-0.06223021
-0.96812767
1.27782834
-1.21355093
0.87067848
0.76402241
1.50831294
-0.56923407
-0.94057089
-0.05723831
-0.41717780
-0.13668865
-0.25897461
-0.12174322
1.28682685
0.38375631
0.24382181
-0.23117790
0.30445939
0.70817095
0.28700015
-1.97190630
0.11845076
0.13891426
-0.26795328
2.52649379
-0.85773623
-0.67348897
-1.52241635
1.16314626
-2.32119370
-0.83474100
-1.37888587
-1.45786977
-1.86991310
0.05163278
0.23916979
0.71751785
-1.63041937
-1.13747585
1.46854436
0.19170573
-1.95393217
0.45909831
0.31795663
0.60857886
2.62861180
-0.25471151
-0.96371233
0.03187722
0.89948434
0.62246752
-0.30904815
-1.59720755
0.12106583
1.68778443
0.37855494
-0.29646924
-1.30632305
0.74186808
-0.82079136
-0.17472164
-1.04070222
-1.37448382
2.01249814
0.11173698
0.02774943
-0.36122614
-1.19139743
0.92267489
0.02281063
0.40183941
-1.03769255
-0.60335457
0.05758659
1.35359168
0.00658360
1.13151419
-1.39010978
-0.52412105
-0.36119232
-0.87407696
1.06169748
1.28607941
-0.29560274
0.26658767
0.48672614
0.96454662
0.24844725
1.00836742
0.23155722
-0.40468618
-1.39910924
0.53657866
1.60729170
-2.17628360
-0.69905120
0.08109207
1.38165355
0.89906049
0.94670099
1.54236531
0.52446634
-0.60688543
0.07811028
0.26743144
-0.18861145
0.83943546
2.41473579
-0.44540939
0.52006519
2.22661948
0.82396013
-0.48975357
-2.03479195
-0.54564476
1.25189114
0.28731018
1.01189888
0.11847486
-0.67653561
-0.75235808
-0.63697559
0.97069412
1.21436369
0.12873659
-0.48094770
-2.00086427
0.88781500
1.29080939
-1.84022033
-1.22811162
0.40306580
0.59821862
-1.40277362
-1.45343935
1.28938174
-1.07670271
0.33196911
-0.13291936
0.89702034
0.98719418
0.70434433
-0.33054855
0.20506056
-0.15814084
0.18437813
-0.98564374
-0.12777950
1.13119364
-0.16560236
1.38743114
0.26912212
0.39154911
0.45254961
-0.46164888
-0.43811035
-0.18237261
1.45656264
-0.72871900
1.16274488
-0.18943404
1.60595000
0.45145935
1.66200662
0.12280346
-0.35590625
-0.73694152
-0.16141917
1.82241499
0.39364636
2.91839147
-1.61307657
-0.63689107
-1.00809252
-1.22716355
-0.80062914
0.12573844
-0.85480052
1.24158573
0.75547439
-0.63358855
0.22339712
-0.61574262
0.26305860
-1.28391385
-0.12118606
-0.94291198
1.16250789
0.21168435
-0.58906269
0.63259256
0.57350504
-0.81041676
-0.51299399
-0.39909676
-0.41360572
0.67002928
-0.24043375
1.20682120
0.28232208
-0.33728540
0.47225261
0.37838891
-0.17874856
-0.63254315
-1.81368542
0.89606804
1.50676799
-0.94067067
-0.13667056
-0.60758680
0.05644235
0.18683192
0.45072362
-1.76158071
0.66629833
-0.35164851
-1.61429811
0.66186363
-1.34433091
-0.87791616
1.55701494
-1.04110932
1.28436613
1.84614837
1.03293359
2.12208509
-1.84320068
-1.93044770
-1.14331079
0.06915902
1.66653013
0.48278481
1.47315657
-1.79161203
0.69939053
-1.49222505
2.54034567
-1.38236868
1.38424242
2.35754085
0.05431770
0.61025149
1.19858730
-0.16184151
0.09645335
1.15048015
-0.70215774
0.67502493
-1.69805992
-0.23270659
0.56449175
0.24441871
0.00192054
-0.17789365
1.44095767
1.11482012
1.41314518
-0.74650049
-0.42280653
0.12741983
0.03228911
0.72459352
-1.03757036
0.71708447
1.22936654
0.51691961
-0.69219917
0.06593338
2.21810055
0.68068826
0.65244877
2.00747609
-1.26806259
-1.04301083
-0.43786785
-1.04522049
-1.64668918
0.45999506
0.27269855
0.02047474
-1.05774760
-1.70403230
-1.45469987
-0.72528058
1.93132675
0.72148108
-1.59210896
-1.04346216
-2.79054618
-0.94222069
1.16908133
-1.69451928
1.68313539
0.47190055
1.76845980
0.74230891
0.18961157
0.41612932
-0.10370016
-2.38249540
-0.99559116
0.52681321
0.05592974
-0.85072589
0.79366738
-1.18485260
1.18994343
1.06506550
0.66169596
-0.10965075
0.08099474
0.08415700
1.74205697
-0.95392287
-0.05005367
-0.04197848
-0.20442230
-0.58837730
0.20205332
-0.22213228
-0.02149185
0.39133757
-2.36713672
1.63270605
0.74846303
-0.06517894
-0.48458329
0.05174309
0.24239226
-0.19833918
-0.69888812
-2.76375675
0.70203584
1.02900684
-1.04898822
-0.28274778
1.00793242
1.13967490
-0.54067481
0.27804777
-0.88879514
-1.37441647
-0.32897341
-1.71017265
0.34373876
-1.46478260
-2.09239912
0.05678156
0.21584699
-0.09969296
-0.99225628
0.64176303
0.28230411
-0.30970365
0.08823162
0.05976897
-0.09240066
2.35918880
-1.23390973
0.00747598
0.06653924
0.08184156
0.17930597
-0.59369642
-1.44382882
-1.82332408
0.58923835
-0.06282915
-0.16432008
-1.18845880
-0.55978221
-0.47023925
-1.64340007
0.27720612
-0.13952826
0.27874786
-1.01762235
0.67145228
0.79711735
0.41879323
0.25064287
-1.02603114
0.84571093
1.82770467
-0.13886900
-0.09501756
0.09414300
0.29976934
0.77882278
0.06515776
-0.09284239
1.12460017
0.26404676
-0.85441142
-0.39990664
-0.65306747
0.40015954
-0.25378749
-0.97677106
1.20233786
-0.03943406
0.53506577
-0.93388116
-0.82364208
-0.43830556
1.70225489
-1.62706554
-0.00209491
0.30911967
0.04602307
0.25330412
-0.22573806
-0.35971573
0.01262191
1.22511888
0.41368708
0.14071068
-0.96858919
-0.15571837
0.43287483
0.14536516
0.07851999
-0.08406620
-0.04834905
0.36231202
-0.41106838
0.23637186
-2.68977571
1.31455028
-0.19169140
-0.21052188
-0.64115030
-0.05432375
-0.17907895
0.78275144
-0.97133827
0.67572033
1.65018094
2.10444021
-0.72378844
-0.30083355
0.14982185
-1.33315229
0.40178919
-1.59745276
-2.13926721
1.53977144
-0.40380701
0.87792170
-0.63412642
1.16318142
-1.73990595
0.94626772
-0.23151344
-0.50261861
-2.20387411
-0.20879693
1.90640247
0.85204911
0.28602260
-0.54060638
0.32371214
0.82969469
1.39337027
-0.88617015
-0.75358993
-0.90358931
0.73420960
0.87217259
-1.31217062
2.09435630
-2.26370001
-0.51774514
1.39125252
-0.26738963
-1.71639705
0.51547223
0.03400210
0.71300435
-1.48735690
-0.00943558
0.54162240
-0.15271322
0.31243041
-0.83186543
0.43812850
-0.96310890
-0.38324142
-0.75352550
-0.10675816
1.63305068
-0.78475946
-0.84496820
1.73075855
-0.26893651
-0.32517990
0.74786383
-0.00395856
0.23280032
-0.97370678
-0.29612258
1.41167927
-0.82484424
-0.64228410
-0.36714253
-0.61900258
-1.14062274
-0.81527275
-0.06574646
0.23016037
0.93183923
1.83846951
0.60107958
0.60247070
0.75609362
1.98900843
0.33356750
1.07324195
0.21956556
-0.98473030
-0.27749726
1.82578635
0.58212614
-1.70643580
1.91056764
0.84447438
0.61998463
-0.60071498
0.81356293
0.69582927
1.23959732
-0.51570278
-0.60862195
-0.96676517
-1.24757349
0.46774518
-0.58779573
-0.65443373
-1.39715052
-0.65939206
-0.35116443
-0.36270922
0.53429949
-1.05200219
2.42628932
-0.22658230
-0.10918976
-0.51397824
-0.57644570
-2.13132644
-0.17556709
-1.74483788
0.15606734
1.38332343
1.45341790
-1.11160743
0.35283533
0.06170471
0.21539712
-0.70965326
0.93569094
-1.87492275
0.55540627
-0.56380492
0.32136545
-0.58413887
0.66890693
0.60052711
-0.75619888
-1.11151195
-0.41802821
0.05501056
3.30655646
-0.95114523
0.60367441
-0.74798596
1.69176853
-1.41934752
-0.30754483
-0.66379756
-0.54718786
-0.54931372
-0.38504496
-0.44457743
0.49483249
1.26232314
0.91312325
0.59438431
2.00135326
-0.45996720
-0.74465311
0.76185155
0.36259398
-0.34831929
1.28058219
-0.00933834
-1.24163115
-0.32476860
1.57971895
1.69809425
0.68484265
0.91766918
-2.17522788
1.73576617
0.89755499
1.58071780
-1.34664273
-0.01485698
-0.27566078
-1.46396267
0.46502724
-1.45659304
-0.43846521
-0.90461439
0.33876887
0.35465664
0.18183118
0.54133505
-0.03371608
-0.36572212
-1.71194029
0.64769125
-0.62251705
-0.90306330
0.45700440
0.15821464
-1.09807479
1.42074156
2.23532486
0.00725047
-1.68401515
-0.08955171
-0.08140892
-0.92037225
0.04779784
-0.59205556
0.07036922
-0.94122362
-0.38464049
0.59255451
1.13624930
-0.85201627
0.27672136
3.33411574
0.70340335
0.31520721
0.84967113
-0.98125774
0.43814573
0.98176032
0.59191406
1.43626380
-1.37893009
-1.07940376
0.68479985
1.28099334
0.53644907
0.40957794
-0.21427602
-0.60539699
0.44133976
-1.17605042
0.32865953
0.67188507
0.71390992
-0.31988075
0.16305497
-0.05381240
-1.15180063
-1.19932377
0.19116925
0.09782553
0.10962390
0.06378497
-0.65195513
1.19245505
0.09069716
0.66586596
1.60178638
0.63664943
-0.49909890
2.32602334
0.25369209
-0.84941077
1.14147544
-0.71198529
1.61681831
0.61357409
-0.25251648
-0.89119846
-1.82801461
0.51096100
-0.65428609
-0.64767081
0.18078125
-2.17921710
0.89648825
0.08326434
0.58671880
-0.80374050
-0.87673295
-0.19909441
-0.43587270
2.01235747
-0.94421422
-0.15602851
0.52096868
0.11403310
1.33401561
-1.09352350
-0.95596951
-1.18126988
0.28349078
-2.19896913
0.45843184
-1.55192327
0.28722700
1.49929476
-0.58420575
0.10339852
0.46870518
-0.40297878
-0.87851334
1.13513720
0.80385470
-0.05719919
-0.06174265
-0.75085378
1.07545102
-1.92663121
0.92089951
0.12535389
-0.33854043
-0.15606751
-0.36409461
-1.71246946
0.18463911
-0.44670364
1.26207078
-0.78268272
0.12283350
0.78123420
0.77982259
0.45599157
0.08764181
-0.79794633
0.14265917
-0.26639232
0.22990471
0.87337470
1.13606668
-0.77820963
0.01235315
-0.54856873
0.65132475
0.57561952
-2.23592210
1.28558564
0.38038066
0.28877938
1.27217555
-0.82390600
1.41413486
0.08738246
0.06725510
-0.67095590
0.87985122
0.33692235
0.32059199
0.99147838
1.04209840
0.66692710
-0.13309109
0.11818755
-0.18248124
-1.60327041
-0.05351566
0.61621875
-1.13373971
1.68875337
0.07644434
0.31007966
-0.20650889
-1.18258572
1.14651680
0.36411411
2.09096599
-1.57286227
1.52629054
0.22680482
-0.70994157
-0.24668117
0.34449190
0.58090460
0.09374909
0.84115160
-0.31561220
0.43378502
-0.08458962
-0.58674812
-0.56346035
-1.23133576
0.29277804
-0.72961628
-0.25572154
-1.18307531
-1.15562916
-0.44451436
0.19134280
0.37948063
1.49028599
-1.58377481
0.49157289
0.15614827
-1.27505171
-0.92314386
0.36088720
0.58791685
0.25094515
-1.01842010
-1.51362646
-1.37847805
-0.06791843
-0.71663022
0.14964643
-2.55486917
1.22290099
2.48599553
0.31222907
-1.82762933
-1.03464472
-0.80210823
0.30860442
-0.81601465
-1.01741683
-0.53468508
0.59648395
0.19301559
0.37921709
0.12090426
-0.29256523
0.96598667
0.62309736
1.66460049
0.25224265
-1.22868299
-1.36997390
-0.05211060
-0.21349321
-1.33708560
-1.20732808
0.87359631
-0.50789958
-0.04686028
-2.13727069
1.04082561
1.76098573
-0.71277094
-0.91960388
-0.60167754
-0.15906861
-0.83069009
-0.30299401
-1.66960192
0.53096318
0.24135078
1.20127058
0.89218670
-0.42204776
0.44048873
1.10442746
0.72322243
0.80773455
0.60367209
0.03094895
-0.06843366
-0.34276852
0.31260449
-1.29544783
2.53290129
0.98238176
-0.49928164
-1.36622548
-0.14970802
-0.55918419
0.18514249
0.64113450
-0.66389132
-2.12187099
0.02346621
0.48588902
-0.61001670
-0.56630266
0.72965860
-0.33222538
-0.83375770
0.21494211
-0.16429754
-1.70052242
-0.73448920
-0.79799193
1.42862976
0.60088050
0.69982386
-0.75654012
0.16726162
-0.39101493
-1.70271122
-0.35275808
-0.76856506
1.00529552
-0.31176373
-0.30938607
1.06703019
-0.32001093
0.48130873
-1.98499167
-2.08809376
0.97975814
-0.99255627
2.02507114
0.11858466
1.85777056
-0.41360840
-0.67900205
-1.01761341
-0.20494761
-1.45241249
-1.55773759
-0.11986446
-0.73833185
-0.10577302
-1.04177678
-0.15849786
0.95614791
-2.31943655
-1.04257691
-0.32365811
1.23647571
-1.76987386
-0.61285377
-0.91781914
-0.01051412
0.06909562
-0.45450750
0.00631799
0.44477347
0.72657019
1.96451700
0.28085047
0.33416906
-0.14523411
2.44519329
0.51255566
0.11169932
0.55823690
0.10838225
0.16437638
-0.62726307
1.64021885
-0.89694899
1.72709787
-0.79382360
0.05242736
-0.42696667
-0.69260168
0.70600235
-0.40866658
-0.80844730
0.37397358
-1.01810193
0.17807512
0.02197213
-0.09503011
-0.33470878
-0.84393334
-1.27564812
-1.32503653
1.68457294
-0.10311719
-0.03143587
-0.19337364
-2.56083393
-0.03131749
-0.64876890
0.50473487
-0.44883707
-0.06807892
1.58498156
0.84727085
1.12112784
0.62409663
0.12165818
-0.55837774
-0.70616496
-0.53603321
0.29898858
1.51403153
0.00148792
-0.65420586
-1.11575210
-1.25738239
0.45879656
1.23850226
-0.14112617
-1.32373726
0.65519047
-2.07809401
-0.13712795
0.86664629
-1.25442934
-0.78233564
-0.80312586
0.50717759
0.20703816
1.80673301
0.42972469
0.43103355
1.08149135
1.51847994
-0.50407618
0.74825913
1.22928095
0.17658664
-0.43480617
-1.67749751
0.94684792
0.24383801
-0.45231041
0.16741414
-1.61356306
0.65450823
-1.58216298
0.48280022
1.42835844
-0.33052784
1.59311652
1.00108349
-0.71762359
0.05185468
-0.64734435
-0.94092971
-0.08318776
0.03757351
-1.83923435
-1.36853504
-1.14756501
-0.90858346
-0.92472106
0.74601656
0.25321123
0.71508890
-0.58278000
1.03361106
-1.55371547
0.74891400
0.42604548
-0.07093150
0.55909461
0.86287564
0.15761746
-0.19401830
-0.51574326
2.72370243
1.22314608
0.50930458
0.73614496
-1.35858166
-1.03372860
-0.07140551
-0.78511906
-2.44615388
0.61439443
-1.32270133
-0.77334255
-0.28297436
0.94218844
-0.44479895
0.32423136
-0.34385765
-0.09049132
-1.26600599
-1.63648939
0.27181000
0.03029372
1.01735091
-0.45363277
0.84338808
2.63682485
0.80431163
-0.98021716
-0.86432457
1.32347739
1.38929999
-0.75896549
-1.35818243
-1.47220170
-0.88175148
0.40448108
-0.81190962
-0.17330788
-0.69550455
-0.19756490
-0.58092290
1.02225447
0.04406215
0.33806768
0.42199284
-1.39529932
1.05850255
1.16870415
0.02254518
0.61595619
0.35096261
-1.24774396
-0.38822404
-0.58870149
-0.75403976
-0.66914648
0.25139600
0.50590491
0.22126764
0.99291337
-0.35224807
0.89229041
2.45694685
0.14394827
-0.15266633
0.78335291
-0.50060654
-0.47309077
0.72089279
-0.81751966
-0.15041918
-0.84238350
0.46299952
-0.51463372
0.79421198
0.64806128
-0.09123873
-2.25178576
1.77407146
-0.01953779
-0.54196966
0.50287598
-0.48658898
-1.91693902
-0.05120353
-0.26903209
0.11986080
-0.20644148
0.07563809
-1.23509061
-0.46870220
-1.34913087
-0.91296291
0.80162096
0.67039776
0.87475890
0.15332644
-1.38918161
3.20114160
-0.22140691
3.30177712
-0.78745449
0.27080083
0.79113561
0.59988314
-2.53582406
-1.07354009
-0.32361576
-0.58248633
-0.03610298
0.49359268
-0.19411005
0.17658833
0.41237321
-0.41748101
-0.59291118
-0.15903746
-1.08173954
-0.66129941
0.33921695
-0.11128210
0.03379834
0.55022544
0.62975979
0.01446058
-0.13658769
0.43128172
1.05041242
-0.43040013
0.51255542
-0.40146965
-1.11080384
-0.30107984
2.20723009
-0.09996599
-0.40199634
-0.70798928
0.45465076
-0.31281364
1.08102238
0.52154404
0.84845048
-0.43981940
1.34768248
0.06084340
2.15595531
-0.64247870
0.96089208
0.11117335
-0.96582460
0.49209064
-0.97767365
-1.21756196
1.00525033
-0.72081494
0.24646084
-1.57681811
0.19554430
0.91470349
-0.92557698
-1.59159195
-0.32539254
1.13222206
-0.12553068
-1.42941630
0.09846038
-1.04359925
0.00087646
-0.61625719
-0.97638506
0.16103727
-1.05435693
-0.17824572
0.87738562
-0.23512566
-0.08314148
1.75542235
2.13205814
-0.53892374
0.40513369
1.25832176
-0.21701202
-0.46862268
0.46340832
-0.62113571
0.42969179
-0.22030729
-0.43567771
-0.24845603
0.96397805
-0.12343892
0.38093016
-0.65047103
0.57886887
1.56891441
-0.52195132
-0.53898203
-1.00059772
-0.79169333
-0.22313011
-0.66215640
0.02237105
-1.13932228
0.46139216
-0.23245853
0.52685398
-0.65809727
-1.58864355
0.95059925
-1.71379852
-1.79233801
-1.44881260
-0.75287771
0.07866468
-0.36569002
-0.10020384
-0.04077666
-0.31337845
-0.55456859
0.27516344
0.61046165
0.81938744
0.57478082
1.17280674
1.04726923
-0.55384058
1.38193464
-0.94183803
0.44553289
0.08607844
-0.72387505
-0.75619352
-0.17385122
-1.74580300
0.26365539
-1.00169086
0.48579934
1.79038131
0.42394370
-0.11852849
1.22987187
-0.22862746
-0.03943973
0.53405589
-0.80732936
0.21068664
0.17011848
-1.03551710
-1.35702813
0.81581503
0.70897919
-0.84858763
0.13849567
0.00423250
0.36649495
0.57233202
-0.27176368
-1.92804790
0.92819405
-0.80249119
-1.27890790
0.03230559
-1.73666441
1.94556582
-0.00806665
-2.15643740
-1.23284602
-0.12181766
1.04364073
1.93177116
-0.53389370
0.71994716
-0.86699450
-0.30566350
-0.97577417
0.08692643
-2.48688865
2.50502658
0.32917845
0.83653867
-0.80780751
0.22738789
1.05997932
-0.54952312
0.34504828
1.03336227
-0.30242479
0.50510108
-0.29287508
-0.53409129
0.74693763
-0.57539636
0.50174928
-1.88131464
-1.25416815
2.07677817
1.42836130
-1.06480396
1.24261045
1.14016843
-0.93906796
1.05201173
0.09028788
0.10216560
-1.04297805
-1.75191975
1.46158934
-0.49547955
-0.53064525
-0.74212003
0.10084248
0.87420988
-0.55541140
0.33401540
-1.03521550
-1.87490511
-0.00530757
0.19680038
-1.74955189
1.56447673
-1.41106474
-0.69182760
-0.89879918
-0.65316164
-1.30358696
-0.81812000
-0.20186390
0.14322634
-1.81906569
-0.57691228
0.55857933
-0.99441129
-0.00237188
-0.22241215
-0.97834784
-0.46074599
-0.22945349
0.93420541
0.26632732
0.18822083
0.54476148
0.32165694
-1.10983849
0.91834795
1.52302372
0.97647083
-0.06299228
0.54018575
-0.51760519
-1.41376340
0.44062012
2.38628006
1.56122339
0.11509807
-0.57963735
0.28794259
1.54607463
0.05405326
-1.49852312
-1.14925218
1.59251058
0.13858692
1.08842814
0.48804307
-2.38131952
0.45393616
0.54286087
-0.57968956
0.43050838
-0.79615927
-0.23969448
1.13016009
0.51340598
0.94721001
0.39648184
1.92224205
0.11443002
-0.00032145
0.96826541
0.15344432
0.39208865
0.01158797
2.65032887
-0.38152462
0.71207362
2.29050946
-1.15621173
-0.30836946
-0.22279271
-1.73980677
-0.53363967
1.05093312
0.03842480
-1.24097967
1.54981601
0.83573020
-1.12141120
-1.19694352
0.22467381
-1.18221486
1.23067796
-0.79048759
-0.27395162
-0.23961177
0.97338718
1.72713971
-0.46912611
-0.58326310
-0.68071926
-0.63937086
0.67372042
0.24425325
1.06547892
0.82373369
1.08318079
-0.75459164
0.14336964
-1.11926758
1.03210092
0.60396934
-0.72601622
0.06221911
-0.78030962
0.06954801
0.89888281
-1.12867558
-0.35897312
0.16544971
-0.35198787
1.42652953
-0.39102849
-0.61266297
0.12898502
-0.00866945
0.49622902
0.00218629
-1.12891626
1.36305594
-1.91096807
-0.14759354
1.45058513
1.13144279
-0.71879941
-1.09631515
-0.85633230
0.20485900
-0.32435361
1.65192997
1.28509223
-0.35965946
1.16372681
-0.62782222
0.01683363
-1.07712138
1.12053084
-0.52410388
1.87404859
0.26898125
0.20476265
-0.00092991
-0.78085250
-0.45407388
0.87516659
0.96464545
1.15046597
-0.48573473
-0.81945294
-1.28768587
0.43662268
-1.74335635
0.52139354
2.00708795
0.17332350
0.51628596
0.73739159
0.04997963
-0.26735812
-2.42785788
0.55876327
0.90336061
1.11872792
1.62962162
-0.05546680
1.73489237
-0.43270487
-0.99965411
-0.07799696
-0.13437621
0.58537942
-0.71955019
0.89084250
0.44424871
0.27909908
0.87602109
-0.92503935
-0.17868808
0.34499758
-1.44481015
0.49688879
0.71923989
-0.92525119
0.06434710
-0.59702384
-0.51243520
0.00353861
0.40387651
2.58123112
0.08141731
0.23896486
0.85606492
0.15042412
1.59321630
1.33415520
1.45680153
-1.48738110
1.48225570
-1.74394286
0.34710488
-1.59213376
-1.18883467
-1.14670861
-1.03488398
-0.53361243
-1.63446391
-1.52739727
0.08959872
1.13961875
-0.95107484
-1.09362888
-0.07576954
1.91203952
-0.75107783
0.30890441
0.54152560
-0.35587531
-0.93109977
0.65524668
1.39738500
1.12930751
1.34148896
1.10559702
-1.22856998
-0.35802519
0.20529824
-1.19866920
-1.36846459
0.43965876
0.29549298
0.04586145
1.16067147
-0.88049066
-1.56067312
-1.47463369
2.16896224
0.77580065
-0.36264676
0.12933116
0.41908303
-1.42881835
-0.96679550
-0.84584481
0.15203367
-1.36065137
1.77866697
0.85278988
0.80750030
-0.55737674
1.31677032
0.27138281
-1.10124624
0.46432054
1.22911644
1.81905389
-0.21631715
-0.45171586
-1.43013906
0.16649078
0.01510095
0.56204003
0.79457545
-2.20313072
-0.17100288
1.73829067
-0.47023201
0.28047013
-1.15050507
1.88259637
0.81865573
0.09383003
0.41535610
1.02801359
-0.03601377
-1.46542609
-0.61713976
-0.01449909
0.75697905
0.21301179
-1.49102545
-0.60831124
0.03466266
0.65883112
1.57387078
-0.34062260
1.36795759
-0.31822526
1.26739132
-0.17111644
-1.25584090
0.42090118
-0.54588485
0.33681107
-0.32799482
-0.54956329
-0.20728052
0.06709507
-1.45246077
0.05675216
-1.52895129
-1.38346827
1.63606191
1.68335402
-0.05330880
1.12815714
-0.79558539
-0.14212503
-0.91736221
-1.63240170
0.55594414
-0.96984047
0.10447686
-0.24534324
-1.92176378
-1.22497571
-0.32783446
-0.35699525
0.14055185
0.05464239
-1.93216884
0.10681749
-1.03807247
0.25926241
1.79144216
-0.00814539
-2.57240963
0.67743844
-0.41014555
1.10629284
1.25402308
-0.42988050
-0.26953593
-0.10079248
0.95525569
0.95253980
-0.25732502
-2.10192370
0.12605444
-1.74787819
0.83249515
1.29231238
-0.50747758
-0.05902317
-2.03809667
0.70424002
-0.69420689
-1.07861245
-1.40205276
0.27680466
-0.93062425
0.29857254
-0.41193092
1.63654959
-2.27775717
0.71625596
1.78293514
-1.42042792
0.29380751
0.88306749
-0.58554703
-1.34456277
2.45546722
-0.98120689
0.57942307
-1.29465604
0.27726316
0.29135185
-0.73274201
-0.09171039
1.48141813
-0.55696225
-0.06691179
-0.84774107
-0.63680369
-0.81288844
-0.85366684
-0.04971637
-1.16591096
1.12567663
-1.55870295
-1.76247740
0.07188325
-0.96282411
-0.18873389
0.78465748
-0.76505309
0.26940158
1.02538002
0.17050801
1.40587461
-1.32303536
1.54785156
-0.08723426
-0.65676010
0.80634004
-2.15019274
-0.11815378
-1.56292832
0.10443640
-1.05079603
0.20618893
0.56900018
-0.98258674
2.36915255
0.71638340
0.45683071
0.16401131
-0.19134322
-0.58811009
2.34571147
-1.09294796
-0.37623459
-0.37543783
-1.82198715
2.06318355
0.64108127
0.11499050
1.48232698
-0.63887620
0.70548582
-1.80898917
0.55366051
0.36423382
-0.31334230
0.33171853
-0.97862321
-1.32190299
-1.21710086
0.14516559
-1.31360734
0.94964141
-0.11362579
0.32762918
1.49530053
-0.49926540
-0.13318270
-0.62849027
-0.68700492
-0.78475261
0.43505481
0.01734659
-0.50690138
0.64276963
1.09790647
-0.97640377
-0.09828864
-1.05196893
-1.64131391
-0.74963534
-1.07937706
0.77848470
-1.33326352
-1.87390077
-0.50209606
-0.51785761
0.03369665
0.12156731
-0.45938849
-0.24491598
-0.93723291
0.62379903
-0.01132813
-0.37037918
-0.37492031
0.62151670
-0.48233420
-0.01157934
1.07538450
-0.94134223
0.58482659
0.02550905
0.10122429
0.38990784
0.15866512
0.18551201
-0.32992753
-0.91187912
0.80059624
0.51694632
0.14184900
-0.47462854
-1.63926876
1.41241622
-1.15563166
0.39377496
-0.43111184
-0.43240488
-1.55289817
-0.43639529
0.03406314
0.77343363
-0.87061608
-0.18842432
0.80138338
1.39755356
1.06409943
-1.22367978
-0.97093683
-1.58827424
-2.39966226
0.77227134
1.63982379
0.99422628
0.59288371
-0.81872857
-0.85141599
0.65090257
2.12193227
1.95131755
-0.67980069
0.39516383
-0.36140946
0.39612591
0.62259799
-0.59569597
0.68577528
-1.02758610
-0.88881010
-0.56779212
1.06167865
1.12108231
-1.81105661
0.23964635
0.21038289
0.61589992
0.54853904
-0.01360196
-0.08965331
-1.43197334
1.34816051
-1.00211227
1.41040790
0.35921833
0.03401181
-2.57209182
-0.76296121
-0.34079927
0.12258650
0.95133489
-0.58340400
1.03007734
-1.00824237
-0.41802672
1.64152789
-0.12012388
-0.65101504
0.73592186
-0.94399726
1.39034033
0.38032162
-0.67876822
0.13720651
0.56088877
0.66638178
0.36211330
-0.27828711
-0.44334161
-0.35855165
-1.68023562
-0.09113559
-0.49523667
-1.25437570
1.01407909
-1.07813203
0.39986172
2.36382699
-0.28645721
0.27952248
1.64761531
-0.57406008
1.52864158
-2.11306047
0.87591439
0.88929975
0.36830321
0.06808615
0.60972816
0.30244052
0.31991211
1.81932580
-1.02423751
0.08443598
1.86831820
0.43026885
-1.72499776
1.26561165
-0.03052285
-1.07009649
-0.98823678
0.51553923
-0.73838174
-0.30100772
1.12886083
-1.72146952
1.74645126
1.50058293
-0.62408620
-0.19182231
0.80416012
0.52338797
-0.53979278
1.02320039
1.25345886
0.57379830
1.36268640
0.41550079
0.30821669
0.73362231
0.84992141
0.13119397
-0.91021228
0.40468580
-0.34507447
1.26232934
0.83241892
0.03070448
0.27326807
-0.33317021
-1.38466883
-0.83512825
0.66069704
0.69431990
1.29362285
0.01064204
-0.33200803
-2.32974553
1.38782692
0.79146469
-0.98633665
-0.07706152
1.21860623
0.33644986
1.75399435
-1.76830435
0.16269110
1.52879536
1.45230639
-1.17707741
-0.19001272
0.07784373
-0.14084549
-0.08856195
0.44203138
0.41584241
0.40150982
1.13303018
0.27772939
-0.21822324
1.06969953
-0.15395202
-0.40404782
1.18234193
0.38312912
-0.73448676
0.26240668
0.62102759
-1.05724120
-0.93237162
-0.43998399
-0.56571561
-0.44363093
-1.38750076
0.65624142
-1.05336475
0.51176941
1.98839211
0.91910118
0.33867019
0.83769166
-0.52452028
-2.41825271
-0.26531625
1.19274616
-1.13348806
0.53650677
0.36902556
-1.55999875
0.07006178
-0.84243673
-0.47893772
-0.61163956
-0.26117098
0.18944106
0.02425552
1.17788792
-0.48391029
1.55327094
0.89119637
-0.95661581
-0.85761064
-1.34373415
-0.41348833
-0.39382228
0.28969949
0.56465161
-0.12004457
0.44832137
-1.34086180
-1.33280325
-0.58049428
0.59026206
-0.31229377
0.90875757
-1.08812654
-0.75071204
0.27710497
-0.59579158
0.40202501
0.57341772
1.56420314
-0.49295384
-1.44284749
-0.41761076
-1.43208373
-1.37242782
-0.30684581
-0.50910324
1.24253011
0.35556322
-1.76242852
-2.18112826
-0.19986455
1.53334475
0.38806275
-0.97269005
0.62517095
-0.18423919
-0.81290263
-0.54010361
-0.10154022
-1.06841612
-1.00051594
0.31037673
0.14968564
-0.18860368
-0.42975852
1.03850031
-0.17329465
-1.83470249
0.06573607
-0.78969789
-2.20025039
0.37303874
-0.06373489
0.17603496
0.18215728
0.20188023
-0.06677981
-0.07969851
0.40070769
0.55185831
0.80388898
0.34382823
0.56365341
-1.16460729
-0.26833481
-1.59654796
0.73349869
-1.77930665
-0.26364389
0.46807244
-0.76543254
-0.93211389
-0.09375066
-0.23961297
-1.12196195
-1.83322358
1.46218872
0.71994978
-1.02795923
-0.32891801
1.83138072
-0.28314489
0.12880357
0.42347091
0.00338310
-0.44290519
-0.89000595
1.21030116
1.12281573
1.08939254
-0.19314018
-1.23738778
-0.33318177
0.13356824
-0.60686070
-0.76670992
1.43681490
-0.14523506
0.80801803
0.66250777
0.24967223
-0.22546676
-0.22217900
0.20723899
0.67111051
0.47359878
-2.56911445
0.47651771
-0.29119638
-1.67929816
-0.24173911
0.07176306
-1.02351117
0.11447174
0.22827080
1.13426650
-1.13655066
-0.29322389
2.01052141
-0.02220202
-1.55951381
-0.83380282
0.04482017
-0.51374131
1.83144784
0.68431967
-0.82276767
-0.60067558
0.55816525
-1.62977505
0.72485602
2.69561219
2.04146385
1.79281402
-1.06707358
-0.80007368
-0.45556167
-0.99540025
-0.77163953
0.09710540
-0.00529025
-0.69889706
-1.33371806
0.56144071
0.25128922
0.62378639
1.69989526
0.44134945
1.06993353
-0.44845209
0.10802522
1.44179451
-0.48669136
-0.25313529
0.86663526
1.05041671
-0.98380715
-0.40169531
-0.06140214
-0.99372768
-0.28351241
-0.26319689
-0.44049874
1.45381904
-0.25483483
0.38260481
-1.44913054
0.35146913
0.57108241
0.23698716
0.13672255
-1.06321764
-0.06369159
1.22390521
0.08367278
-0.47279981
0.06487888
-2.55873847
-0.24971803
-0.26355219
0.62492687
-0.43279007
-0.23848847
1.41687918
-0.63186759
1.39871383
-0.39798161
-0.14927866
0.32126161
-0.21051167
-0.28338176
0.55483997
-1.34642422
-0.74299139
-0.51641893
-0.60598117
1.00324786
-0.80879432
-2.19559574
-1.41789687
1.77525771
-0.42456481
-0.29171199
-0.32249960
0.36505085
0.72915500
0.13704459
0.66724753
0.14788082
-0.47307155
-0.21570595
-0.17272192
1.04458058
0.04098544
0.64406157
-0.49445763
1.50047994
-1.02365196
-0.39953411
1.50262558
-2.08759189
-1.44462407
-0.30650941
1.58338344
-0.92348725
-0.23477630
-1.08688235
-0.77723515
-0.45245847
-0.33550102
0.13682038
-0.53285623
0.11766762
-0.44156006
-0.26009592
0.58794284
-0.07945105
-0.66536534
-0.04113286
-0.20453230
0.37454709
-1.61952794
3.01559711
-0.90759647
-0.77174497
-0.07155137
0.40857017
-0.01120403
0.74043936
-0.86549222
-0.53763437
0.93530828
-0.54313022
-1.71939731
0.71344250
-1.30437708
0.28117844
0.65073061
1.64119279
0.79327887
0.69654441
-0.16300189
0.82236773
1.01847816
0.81570840
-1.04027319
1.58260167
1.51557124
-1.69362891
0.56302011
0.67759335
-1.88169181
-1.75450861
-1.45735419
-0.62259841
-0.11049250
1.14951885
-2.46984982
0.45147017
-2.70189953
0.74083251
-0.56020337
-0.16343516
0.49176309
-1.38601351
1.47153676
0.83177894
-0.03266839
0.66105610
-0.59479541
0.05414300
1.26316154
0.24338078
1.34851575
0.04510889
-1.83736408
0.53009206
-0.31852651
-1.15452302
-0.09794466
-0.00625854
0.24410601
-0.72784531
1.73236334
0.13003682
-0.80104780
-1.96555698
-0.53914064
0.73595941
1.99844897
-1.58954072
-1.25880408
0.05391436
-1.52634895
0.75647336
1.73811924
0.78766286
-0.58505076
0.40608838
-1.22277331
-0.04726636
0.64279783
-0.82588738
0.62361592
0.14979850
-0.50384724
-0.31502342
-0.09693539
0.25821564
0.50943011
0.20172280
1.07132113
-0.30532607
0.64976329
2.48529625
-0.58884287
-0.13053642
0.51660174
-0.72025776
-0.49788484
1.04474139
0.31208852
1.62894309
0.05302828
0.24144100
-0.45889309
-0.20505808
-0.20782451
-0.34509709
-0.40186813
-0.79309142
-0.73791730
0.32593638
0.67563665
0.25911465
-0.13508473
-0.52936673
-0.09930854
0.50440395
0.92497283
-1.27316809
0.09963243
0.25329363
-0.04364171
-0.39489245
1.57475185
-1.15975356
0.45163447
1.32885146
1.62532318
-0.07515749
1.29426432
-0.18047732
0.49591208
-0.49349385
0.55841935
-1.24541807
-1.74065268
1.03769708
-0.67793560
-1.46256828
0.55647278
1.06473553
-0.34790063
1.29560697
-1.64886153
-0.34297127
-0.11451225
1.59535229
0.59224069
-0.37986499
1.50040460
0.43440449
-1.06740832
-0.82339829
0.77446657
-0.22868478
-1.20890975
0.62971461
-0.80353886
-0.58993089
0.58957016
1.28745818
1.10450506
0.37952051
-0.91778147
-0.03383354
-2.61067796
-0.41683206
-1.16069174
1.68478739
-0.30884379
-2.13435507
-0.71219212
-1.52753949
-0.92585379
-0.84087235
0.69365996
0.47426137
0.35405535
-0.07521521
-0.34302688
-0.40301281
-1.07485557
-1.48571718
-0.28323951
-1.00335193
-0.34311634
1.51228762
0.14263049
0.23234072
-0.47913602
1.45691061
-0.14395982
0.26653346
0.44432330
-0.78772873
-0.69071311
-0.52822787
0.38336563
0.75870925
-0.94529796
-1.21060276
-0.94173062
0.41540748
-0.37356538
-0.39438370
1.89140010
-0.99830014
-0.12110730
-0.95832306
-1.46216106
1.68370450
1.60255158
-0.83519948
-2.03467488
-0.29707879
-0.97713113
-0.74450910
-1.70478046
0.55554211
-1.84827149
0.71194291
-0.96966690
-0.30676833
0.35108656
0.17666520
0.54156828
1.07863700
0.48584089
-0.83473045
0.80291492
-0.69861042
0.00009832
-0.15751411
0.79848939
-0.74593812
0.30576712
1.57535934
1.13176548
-0.97448665
-1.04232252
-1.23645985
1.56341720
-0.28709066
2.19248009
-1.39185417
-0.50126237
0.78912961
-1.53366852
0.79021758
-0.23475359
0.42318285
0.12902535
-1.42976677
1.14075255
0.12569587
-1.28737473
0.83583230
-1.10170829
0.85721785
1.87260532
-0.66589111
-1.31695962
-0.79017043
0.08814759
-1.01618981
-0.41372046
0.71554536
-1.97235322
0.72522223
-0.55941683
0.78903323
-0.63386154
-0.93104649
-1.15363085
0.57515478
0.41258013
0.42472595
-0.42798555
-2.00580788
1.04713857
-0.94933140
-0.44740289
-3.38677239
0.83283025
-1.42457378
-0.43006125
-0.57248515
0.50139689
-2.59413123
-1.21043241
0.11684693
0.44285864
-0.85119939
0.57887888
1.58572245
0.05523560
-0.44527242
-1.02452254
0.32033238
0.30734143
0.46613988
-0.16410351
-1.15952945
-0.02998049
0.09445798
-0.60528648
-0.91454417
-0.62459630
1.24951458
1.33221889
-0.92474627
-0.58400857
0.42051092
-0.14476903
0.84968251
-1.88411021
0.39686868
0.06562158
1.41351295
-1.41547561
-0.35630509
-1.05904031
1.15878201
-0.46834376
1.48466945
0.08766652
-0.54847687
0.62417692
-0.39194477
0.75456673
0.91057545
-0.54966670
-0.84278208
0.25788411
-0.74941176
1.03243601
0.68963861
-0.53244591
0.58927137
-0.83545715
0.24213006
0.19870293
-0.92410231
-1.34374166
0.33095744
1.55437398
-2.37710357
1.61074281
-0.49666789
0.73313349
0.79573917
0.97277325
0.88857228
-0.52929592
0.80360782
-1.04792690
0.23071145
0.04306098
2.03122926
-0.26985312
-1.94927156
-0.79383910
1.11595666
-1.27633393
1.13647068
0.52018535
0.43634710
0.23694253
1.44879866
-1.80908787
0.00189056
1.56287813
0.21660714
-1.03126860
-1.24477839
0.91570967
-0.41367120
1.00452232
-0.69211155
-0.53401864
-0.82626969
2.36688805
-0.23309670
0.39172184
-2.02237892
-0.94271928
-1.12206113
1.01945448
-0.02568226
0.65710431
0.12142646
-1.30876875
-0.59308857
-0.66325819
1.24943960
-0.79893780
0.27827016
0.41059116
0.51931012
0.22930102
0.09442631
-1.67430353
-1.05870068
-1.00633013
0.37058491
-1.77819157
-0.49750295
0.90309286
-0.27175760
-2.12057281
-0.40225887
0.36097869
1.40710711
-0.15115689
-0.40973264
0.62154466
0.20438547
-0.16067159
-1.67054510
-0.73161346
-1.04324150
0.04854425
-0.00978165
-0.23061204
0.03674908
0.09996372
0.11966050
0.31576267
1.14508176
0.78637934
1.68078673
1.18829703
2.17801046
0.64219010
-0.11733518
-0.00631879
1.34006214
0.06772148
0.60814095
0.69229442
1.03421021
-1.24899018
-0.73114949
-0.38709912
0.23183064
-1.33130753
-0.00769285
-0.24953894
0.16772595
1.01148760
-0.40598282
1.08059490
0.27675301
0.95189494
-0.29644564
0.91212434
-0.26920566
1.11376512
-1.69828415
0.12064982
-1.55880058
0.31914076
0.03406139
-1.88281214
-1.76639724
-0.13529165
1.22387671
-1.09479725
0.32807499
0.82016200
0.16354424
-0.15795539
0.61566204
0.41454801
0.11090629
0.41081637
-0.60774034
-1.48789990
0.54764825
-0.40170917
-0.33275804
1.09084511
0.69674546
-0.95034432
2.04326129
-0.85382223
-1.56107163
-1.01252186
0.81500977
-0.81599325
-1.04077828
0.16726145
0.18374746
-1.40295970
1.45490611
1.71617854
0.26445296
0.18634951
-1.80557108
-1.09613788
0.46313053
-0.13790420
0.55213952
-0.17664948
1.23192716
1.31893742
0.85288644
0.87398267
1.14906716
0.04434739
3.06612492
-0.73951930
0.55401456
0.50223488
-0.83021748
-0.54210705
0.41646400
0.28110164
-0.08437122
0.06920045
-0.05832377
0.10798564
-0.34936211
-0.01457801
-0.32502887
0.22675529
-0.52256036
0.17085585
-1.04839253
-1.12455750
0.10790388
-1.98871028
0.04991285
0.33571902
0.04041455
-0.42934170
0.36479950
-0.18583098
0.34243178
1.08212733
-0.56729060
-1.89037979
-0.64977223
-0.25879735
1.46909118
-1.29598427
-2.32886195
-0.23226102
0.65756649
-0.47542319
-0.99163216
-0.16270564
-0.39363301
-0.67135864
-0.43833217
0.69944853
-1.45815551
0.07329866
-0.90982610
-1.07251287
-0.05411502
0.95946771
-1.04999292
-1.61864686
-1.05645669
1.04631257
-0.74135035
1.51668274
0.77251041
-0.23240669
-0.54633158
0.10049102
0.19709677
1.92904580
0.97685093
-0.31332964
1.27557850
-0.02815916
-2.32792115
1.08977270
0.20076042
-0.04531594
0.00079468
0.39830047
-1.40010762
0.38294804
0.11276286
-0.01382735
-0.61562508
-2.69588590
0.42279565
0.32474187
-0.69516265
-0.26902029
-0.58461171
0.41105700
-0.19025023
-0.13934657
-1.38473940
-1.72830582
0.96328872
-1.94371915
-0.24404104
1.12471724
-0.42917958
1.38049054
-0.24149561
-1.22994041
-0.46200937
-1.13018072
-0.36002240
-1.08362937
-1.01795077
-1.40917325
0.00345298
0.16136608
0.82346499
-0.07822134
0.50733531
-0.70976716
1.46487558
-0.07673788
-0.12656125
0.65177292
-0.83491302
-0.66152227
-0.76146209
-0.26258802
0.02360170
1.02654588
0.66780072
-0.21138440
-1.05322337
-0.13176480
-0.08260126
-0.46059239
0.32852891
-1.66684771
-0.27121159
1.17964053
-0.29980600
-0.03115425
0.42508167
0.48565879
1.15874755
0.58739018
-0.68761039
0.31677097
0.40065250
0.77412802
0.79819036
0.53865451
-0.17493926
1.00687790
1.28291166
0.00474185
-1.62678993
-1.32834899
0.48820227
1.84138894
0.09443272
-2.47827530
0.45922568
0.70700741
-0.46978253
0.65543580
-0.37005410
-1.18387616
-0.52415383
-0.47569814
-0.21506223
0.36019087
-0.81220222
1.97094917
-0.53558832
-0.59980285
-0.44253320
-0.58417910
-0.02655049
0.12557754
0.49823695
0.52611709
1.76015210
0.45187029
1.75168335
1.00608182
0.36710513
0.02360043
-1.11008620
1.85928655
-0.94036388
0.75133115
-0.89287990
-0.89591408
0.82406229
0.64984512
-1.13537705
-0.13987420
-1.18200004
-0.90110850
1.68985081
0.07221156
-0.49402487
-0.35957393
-0.75134146
-0.47615528
0.20934941
0.22887787
-0.41104212
-0.65905833
-0.32716754
-0.15177360
-0.72040230
-1.66982007
0.69990474
-0.64413947
-0.82157040
0.15581004
-0.91986179
-0.61649275
-0.54299396
-0.98022681
0.57121223
-0.07045611
-0.78706378
0.81785655
2.23320580
0.20757933
-0.86040032
0.32082811
-0.03790053
-0.80964398
0.28787351
1.94283199
-2.05177236
-0.12067530
-1.08874965
0.76073396
2.15137744
0.46640354
1.87827718
-1.27043736
-2.42191386
0.58016545
-0.37423259
-0.23622952
-1.19074273
-1.15324557
1.28629756
-1.82747757
0.44882393
-0.33890411
1.32832110
0.67279953
1.32111704
0.58725047
0.34839609
-0.46723533
0.48986146
0.63419181
1.27752090
0.04412857
0.49019018
-0.20036833
-0.20248355
1.68352854
-0.10181399
0.70069814
-0.63400984
0.56805414
0.24694303
1.37919605
-1.09569132
0.90194356
-0.26651269
-0.42441046
-1.11451435
-0.36171907
-1.46473801
0.67879045
0.26450711
0.93359339
1.19678080
-2.18051314
2.87720180
-1.80155838
-0.79280823
-0.79619932
0.26368019
0.13618369
-0.15103103
0.04429265
-0.08986825
0.79632497
1.28766263
0.86178410
-0.09701689
0.71165842
-1.07320964
-1.84432447
-2.21532845
1.87363291
0.94695866
-1.64184856
-0.80705446
0.20597963
-0.65018255
0.23801583
-1.43974543
-0.89362603
1.17447364
0.18917629
-0.04511473
-0.43773025
0.51193345
-0.75356609
0.10438573
1.59019744
-0.48633859
-0.60331434
0.20041877
0.35204488
1.10159183
-0.13252097
-0.71365529
-0.02554564
0.53516448
-0.85148728
2.14935851
-0.78581685
0.40526390
-0.54791564
0.06804373
1.69801176
0.29919946
-0.82313401
-0.23582375
-0.84363943
-0.14358608
0.05564906
0.48367542
-0.29461473
0.49566546
-0.37061885
-0.45265156
-0.14848746
0.18893445
-0.28458342
0.51542997
-0.53642029
-0.45176372
-0.84179777
0.41910908
-1.39641368
-0.07458718
-0.99660105
-0.11350342
0.66463172
-1.45851612
-0.37534261
-0.38807228
0.64151067
0.27186269
-0.33797130
-0.36506382
-1.11716712
-0.92055821
-1.32377625
0.56998909
-0.57760215
0.95400190
-0.13648425
-0.47238490
2.63812542
-0.05200537
0.28656745
1.71184778
-0.64808559
1.46509969
-1.35086322
-0.32824576
0.06321371
1.37252045
0.10547133
1.70378089
-0.06894124
0.04174436
1.02430868
0.21945857
-0.23430584
-0.74143356
0.10514989
0.52070290
-0.26767349
1.04788828
-1.27003634
-0.56887472
0.89842474
-2.17765045
-1.43568921
-0.39833578
0.00374013
0.28031728
-0.85307682
-0.60105032
0.54150790
0.72508246
-0.30403736
0.22595121
0.34231219
-0.26225492
-0.93494892
-0.41106239
1.07064164
-1.02678621
0.19727005
-0.05536608
-0.42511016
2.20389676
0.56075954
0.41768748
0.08596013
0.58054692
-2.12428164
-1.10272503
-0.77065766
-0.47510242
0.67408371
0.53510630
-0.61686903
-0.25223139
1.29139793
0.47536987
1.00565994
-0.65297270
1.15160942
0.21142657
1.30850112
-1.16272008
0.38985565
-0.42538074
-0.09299067
-0.54999983
-1.04623115
0.11041158
-1.28114748
0.72368044
-0.29298952
-1.19082522
-0.68283284
1.31700754
-0.54204166
-0.14170840
-0.17562051
0.08233120
-1.15967131
0.14382866
0.60672683
0.30234385
-0.99251503
0.41003269
0.64648765
-0.13180885
-0.57147384
-1.75832939
-0.91689879
-1.43466866
-0.70737743
-0.18366040
-0.51094085
1.62669551
-0.54498792
0.54345709
-1.17327619
-1.06433916
-0.61401480
-0.64430994
-0.60266066
-0.37942013
0.62077987
-0.13890506
-0.40125459
-2.23799157
-1.10956514
1.20391130
-0.36771917
1.51910818
0.14926665
2.02497315
0.25210020
0.37676135
0.00885225
0.45957300
-0.06634460
-1.62423682
-0.15795057
1.27464151
0.86138040
0.88232678
-0.62457150
0.75197393
-0.09448034
0.07444717
-1.27549875
-0.70860821
-1.78394139
0.28812739
-0.91457677
-0.80432725
1.64863944
-0.53835863
0.02051759
0.99631977
1.86905789
-1.06566799
1.34196103
0.85787666
-0.01817348
-0.55871397
3.29700661
0.66113728
-0.06298380
-0.26844981
0.16181746
-1.57826352
0.66540635
0.14765094
0.77929860
-0.64543837
-0.51531696
0.31515050
-0.01639098
-0.22509301
0.47953251
-0.37799612
-0.71814358
0.49962661
-1.91479933
-0.65025109
-0.01884718
1.40454578
-3.25720382
1.11926162
-0.40714324
0.41349387
0.21115346
0.84575576
0.22629903
0.38301963
1.72625375
-0.32912451
-0.49587178
1.37763488
-0.60889965
-0.75712156
-0.04590839
0.47447720
-0.22914709
-0.30552530
-1.00079596
0.12219126
-0.37006572
-1.76794183
1.20726550
0.61924648
1.92704093
0.20348108
-0.79041433
0.46521366
0.19440039
0.69723123
0.71724975
0.45595983
-1.24350476
1.35371864
1.49900866
-1.18827856
1.09167290
0.75648999
-0.63773984
-0.36730736
-2.29812002
0.17585412
1.35395694
1.24677193
1.11799777
0.47585830
-0.68723083
0.30092621
0.69674790
-2.06340814
-0.14008841
-0.28862435
0.46068782
-0.59240478
0.21488513
1.39107811
3.65486503
1.01017249
0.17320144
-0.98213673
1.03612757
0.40374029
0.25153232
-0.92307687
-0.30347824
-1.04969919
-0.19443838
-0.87102193
-1.70441270
-1.33235419
-0.82940334
0.14364713
-0.03913865
0.90167850
-1.25401342
-1.50332189
0.58211190
1.01072633
0.86296314
-0.50017315
0.39259818
-1.47955537
-0.46022561
-0.58906966
0.01075911
0.66582668
-0.54810166
-1.15105653
-0.19629796
0.79945189
0.29551643
0.45915598
-1.70060325
0.05839068
1.06090200
0.60905433
-0.64627326
1.10352004
-0.77266383
0.07611533
0.19820592
1.75883329
0.12111194
1.32931137
0.00012636
-0.60879248
-0.14136967
-0.19800606
-1.31253231
-0.76398683
-0.42246601
-1.34088504
-0.59328991
-0.81011951
2.01836705
-1.14887047
